condition,dc_out,dc_ina_out,acd_mag_0.05,acd_ph_0.05,cmrr_db_0.05,acd_mag_0.5,acd_ph_0.5,cmrr_db_0.5,acd_mag_10,acd_ph_10,cmrr_db_10,acd_mag_50,acd_ph_50,cmrr_db_50,acd_mag_150,acd_ph_150,cmrr_db_150,pulse_baseline,pulse_peak,pulse_end,pulse_undershoot,pulse_tail,pulse_rise_time,pulse_area,zlo_mag_10,zlo_mag_100
healthy,1.6495970695970696,1.6495970695970696,211.72779663957894,39.23368415050989,49.495183125815075,273.9058310790972,4.3787014380409985,50.09171848823667,274.57565912825413,-4.722692391071927,50.80500520721951,270.1463074395998,-24.40847339942862,53.502731828486716,218.51384918876792,-76.71553701946358,57.13510885278071,1.6494627594627596,0.2821408221408219,0.2610419210419209,-0.020553520553520555,-0.011249491249491594,0.003,0.053075734635734596,38772063.158808336,17829020.440192044
R1:open,1.6512087912087912,1.6495970695970696,4.222182794437998,38.697930837912246,-11.839216487949543,5.417724507636905,0.7260085311098541,-9.673359716153088,3.3116349758137806,-56.68909837990342,-13.948745584847657,0.8201141990933071,-103.96394287827096,-26.072138425494366,0.22226052903179166,-161.37245062110435,-37.412252143099316,1.6512494912494913,0.007895807895807683,0.005331705331705239,-0.003284493284492984,-0.0003133903133899496,0.0775,0.0009473992673992694,1649997045.6819744,396856918.7032932
R1:short,1.6467765567765569,1.650805860805861,211.58358433285966,39.37759398572193,47.55144324969409,273.5435384276888,4.395267181961438,47.82736577790848,274.2296208163955,-4.739020148149065,47.9261276793763,269.40582805553146,-24.342312271576752,51.305297734642636,217.3027346800806,-76.49950231204363,54.4780313066112,1.646882376882377,0.2815303215303214,0.2606878306878305,-0.0201953601953605,-0.011485551485551304,0.003,0.053018811558811635,39625409.351491004,17439226.104218215
R1:parametric:-0.5,1.6487912087912089,1.6495970695970696,211.6168085373232,39.07564994082102,48.067238060135814,273.3424684961816,4.374389794765266,48.353976703983946,274.02714029683386,-4.706266995949617,49.58378388986248,269.536553351359,-24.345997326145913,52.29656950032667,217.12937161636358,-76.63236497195561,56.21073150125079,1.6485063085063087,0.2816809116809116,0.26033781033781056,-0.020671550671550687,-0.011282051282051286,0.003,0.0529692185592186,37241247.637947604,17425314.82060636
R1:parametric:-0.2,1.6495970695970696,1.652820512820513,211.39286802452887,39.203252534228064,48.55184834102658,274.07272529459595,4.398716484026808,49.239542936994965,274.59614301504007,-4.704801753834319,49.364754589990525,270.5220577669922,-24.322210113445223,52.70285667652277,218.41630986979732,-76.4931346680749,57.173026103638165,1.6496011396011396,0.28251119251119217,0.2612210012210012,-0.02080993080993032,-0.011404151404151408,0.003,0.053108156288156266,38526211.728814006,16995607.787023026
R1:parametric:-0.1,1.6475824175824174,1.6516117216117214,211.06807351881588,39.274712967885264,49.31219380218554,273.43933083570016,4.366500613882458,49.5816364270781,274.5042646007446,-4.723410997007162,49.688845748042496,269.1557699718444,-24.483929621258902,52.82815319507518,217.4816913563343,-76.70969973642337,56.24963909867681,1.6475376475376475,0.2810134310134311,0.26073667073667084,-0.01990231990231983,-0.011379731379731362,0.003,0.053018343508343516,40636732.35754937,17888990.385017633
R1:parametric:-0.05,1.6463736263736264,1.650805860805861,211.84122867539566,39.096748283828006,49.785223527638635,273.73965509334226,4.391654106758114,49.96333952350644,274.53833758478515,-4.7002769332575784,50.180187076179806,270.0197406175402,-24.33318975308163,53.459311331139396,218.60197017621172,-76.57273426213254,56.43192037355105,1.646381766381766,0.28203093203093177,0.26096866096866134,-0.020630850630850683,-0.011306471306471444,0.003,0.05304553927553923,37855207.03185812,18158407.762796495
R1:parametric:+0.05,1.6483882783882784,1.65,211.5161228217883,39.21293517749872,49.8146080586764,273.9765798935575,4.394005008175547,50.28217250498162,274.7805941114705,-4.726453802515154,51.40792204859144,269.7041975952751,-24.406845100932937,54.683198558131,217.79649016543684,-76.88783841513704,58.829018717770495,1.6487871387871391,0.2823280423280422,0.26120472120472094,-0.020472120472120547,-0.01124135124135106,0.003,0.053102905982906054,37208696.074183285,18222589.063134678
R1:parametric:+0.1,1.6504029304029304,1.6504029304029304,211.98383430364075,39.00616413546629,49.863680166819265,274.10020746555296,4.361402855725906,50.40322954238661,274.6868044007198,-4.722316861288433,51.80575976613433,270.2857037356333,-24.48724740148885,54.219918706389514,219.18922504612175,-76.57398730295688,57.82414143047714,1.6504232804232806,0.2820838420838422,0.26129019129019126,-0.020704110704110934,-0.01111925111925105,0.003,0.05312715506715508,38583335.69555798,18723727.89787202
R1:parametric:+0.2,1.6443589743589744,1.647985347985348,212.02626240986075,39.12485212057445,50.41667320730569,274.3015943596703,4.355198467835474,50.96046838173922,274.9792521979199,-4.75667701046158,51.6407827719009,270.6302829576326,-24.513637862149082,53.89913986648284,217.89198635758964,-77.12426383496484,56.97303618377383,1.6444200244200247,0.2825478225478224,0.26142450142450147,-0.020610500610500626,-0.011233211233211082,0.003,0.05314680504680504,37872657.733723365,18363145.945678696
R1:parametric:+0.5,1.6544322344322344,1.6495970695970696,211.82332294949558,39.09222892410832,49.47262664590196,273.93015453010185,4.376820984150882,49.761547715217006,274.72961646514716,-4.728620002073091,50.34099875502164,270.27395390987465,-24.61146317967969,52.998413396439645,217.7678623181975,-76.96303245147118,56.248893129671146,1.6545502645502643,0.28204721204721195,0.2609686609686612,-0.020561660561660644,-0.01112332112332115,0.003,0.053066564916564904,39660886.45817302,18802161.02618679
R2:open,1.6447619047619049,1.6495970695970696,4.625476221572069,39.07865292841501,-11.046378226540272,5.947520345467868,2.439761835789329,-8.863156368129467,4.087180058913983,-25.898147829590123,-12.121259928353371,2.6534950141643923,-17.683718566855234,-15.873011599992731,2.8308289345888795,-38.35635755723235,-15.311089723765715,1.6446927146927148,0.008327228327228542,0.0058201058201058364,-0.003345543345543489,-0.0001221001221003437,0.054,0.0010856125356125332,1650000931.5995975,396029527.49903774
R2:short,1.650805860805861,1.6487912087912089,212.19790097033987,39.26129247771238,50.259992009764616,273.94851737314093,4.3902265621552425,50.71790266519331,274.43583665464763,-4.671071720081402,50.685089759556945,269.9222043488244,-24.238270613861708,52.35130836771176,218.11252640632952,-76.32195466206578,53.98829431462348,1.6507000407000407,0.2823036223036225,0.260960520960521,-0.02065120065120052,-0.011282051282051286,0.003,0.053086434676434716,36948615.29807531,16740257.35674491
R2:parametric:-0.5,1.6524175824175824,1.6516117216117214,211.91959793813785,39.20448526402812,49.76400409027323,274.26729575190177,4.377532424306143,50.1764410011903,274.8982022197893,-4.680931991960692,50.90767409831713,270.35723991783584,-24.242302342312506,53.918471668039416,219.04980438819757,-76.62493666967995,56.380450597584,1.6524704924704925,0.28216931216931207,0.2616157916157914,-0.0210663410663412,-0.011066341066341079,0.003,0.053146483516483475,35863748.46585628,16583532.568041302
R2:parametric:-0.2,1.6512087912087912,1.6504029304029304,211.644439736819,39.124384642128355,47.89710438678554,273.5237004390515,4.3704668622206,48.68859403970272,274.28867935099925,-4.716190579797795,49.5018943895993,270.0548193092724,-24.236257138475658,52.8846189416862,218.35273204162007,-76.41761921529584,58.466367419062024,1.6514611314611316,0.28230362230362227,0.2604843304843305,-0.02059015059015079,-0.011322751322751179,0.003,0.05300526658526659,38979397.887920916,17462190.423967227
R2:parametric:-0.1,1.6516117216117214,1.6487912087912089,211.78869712674881,39.375444587703,48.88873290133586,274.0110278318907,4.401961601150596,49.47892757268441,274.6658383268182,-4.689271348961034,49.71010786042744,270.3210938229963,-24.23922966904462,52.73005097964764,218.99503076475253,-76.32487127845191,57.73301486684085,1.6514692714692711,0.28244607244607267,0.26134310134310124,-0.020683760683760766,-0.011310541310540989,0.003,0.053108998778998856,38502153.42991185,17249303.021090135
R2:parametric:-0.05,1.65,1.6504029304029304,211.4615063390629,39.182633884896575,49.48032001225863,273.9780719566297,4.385626308753469,49.628116663955666,274.6776655490248,-4.739170789628577,49.96253277945948,269.9516828605921,-24.408271050971358,53.17125087836146,218.04975147928002,-76.77362581282368,58.23388709812919,1.6496988196988198,0.2819495319495322,0.2609645909645907,-0.02054538054538091,-0.01131461131461109,0.003,0.053097680097680046,38786013.27252228,17401507.808632784
R2:parametric:+0.05,1.6495970695970696,1.6487912087912089,211.04880459799915,39.30514748768006,50.90917459714632,273.93439093864447,4.408952614555975,51.447074110127936,274.71219672712357,-4.730208098978135,53.4618624946192,270.4376413519546,-24.469566242740168,54.36074805508565,218.55417128101442,-76.70262899891702,58.881593637421524,1.6495238095238096,0.28222629222629236,0.2613146113146111,-0.020818070818070966,-0.011159951159951165,0.003,0.053045466015465975,37819533.45384234,17911935.098967716
R2:parametric:+0.1,1.6536263736263737,1.6491941391941394,211.6876440991588,39.26964806753173,47.90516818936712,274.120362339606,4.385276498546669,47.94786443772813,274.9298166126663,-4.715919045432925,48.656009680167664,270.5867618232429,-24.394814975095898,52.24254522959793,218.6559505764099,-76.63426469234588,56.529699978370665,1.6533943833943834,0.28226292226292216,0.26151811151811166,-0.020594220594220447,-0.01113146113146124,0.003,0.05314588115588117,38230218.148349926,18610422.764086157
R2:parametric:+0.2,1.65,1.6491941391941394,212.00633642642606,39.153812000835096,49.04985412116452,274.25875269997266,4.377184941705277,50.43455690823305,274.7862493643494,-4.717063266911289,51.31567810910286,270.6735793227327,-24.421395420204956,53.71568603300224,217.95487445689633,-76.61382738983156,57.46472954679169,1.6497964997965,0.282271062271062,0.26166463166463183,-0.02099715099715116,-0.011269841269841319,0.003,0.05314264957264961,38514661.91820367,18006643.235352084
R2:parametric:+0.5,1.6471794871794871,1.650805860805861,211.49178803721867,39.181203727916255,48.91595350707465,273.5931290096525,4.369602545942472,49.61198135268164,273.9514718448122,-4.744083719039624,50.019830035312694,269.6928092301415,-24.54088076350293,52.175382553701354,217.60146786487132,-76.9048741834209,56.48132767461414,1.6469800569800568,0.2817501017501015,0.2606145706145707,-0.020089540089540336,-0.011229141229141426,0.003,0.05301930402930404,41560668.47639631,19324040.82386054
R3:open,1.6495970695970696,1.65,212.97204737159106,39.23541975858861,41.28238101923327,275.21208349120514,4.3649384243293134,41.61213842366925,275.9301207874399,-4.796061922333611,42.827620496173935,270.76862429497226,-24.48007407619623,46.02533846008373,218.70448455897053,-76.90807042967356,50.5474831191179,1.6493487993487994,0.28292633292633285,0.2623199023199022,-0.020077330077330147,-0.01132682132682139,0.003,0.053313939763939756,39772126.256993115,18350238.836514622
R3:short,1.6475824175824174,1.6487912087912089,0.9074114167927084,41.36625470914117,-25.193767275374768,1.2753140716838849,21.797643036026933,-22.23746624781134,8.124036077517932,76.51534994069942,-6.154492644450295,48.291238415067,60.56102001917745,9.32772646095265,180.41549723569287,-18.191149583123106,20.77570783562526,1.6475295075295078,0.08990231990231967,0.0011803011803013241,-0.09027269027269003,-0.00011803011803035446,0.002,0.0003626455026455157,1428823.5474229106,9518124.543590955
R3:parametric:-0.5,1.652820512820513,1.6516117216117214,212.13163244432803,39.22679231496349,43.33116895364721,274.0936442238817,4.404899205787673,43.33428891786404,274.6377777237321,-4.676362158728834,43.675570830414244,270.32930828383496,-24.354645178646233,46.00982952386377,217.8665952752599,-76.52433142848801,50.45468434469453,1.6524949124949126,0.2823890923890927,0.2611070411070412,-0.021225071225071113,-0.011164021164021265,0.003,0.053111518111518125,36740927.45930836,17900727.348989382
R3:parametric:-0.2,1.6491941391941394,1.6512087912087912,211.8284055861894,39.31676307192477,47.91222764163076,273.7470870094065,4.42064284487282,48.31583810544176,274.4478555976291,-4.655670014380641,49.51963166377534,270.2808454920084,-24.26339857398156,52.07449965806536,219.5237329635816,-76.47772666364378,56.285980949271995,1.6491982091982091,0.28222629222629225,0.26107448107448106,-0.021070411070411077,-0.011269841269841097,0.003,0.05306753357753357,37823939.37545285,17645642.88086622
R3:parametric:-0.1,1.6463736263736264,1.6504029304029304,212.31023960293032,39.12858833332097,49.02785066100897,274.3377170021183,4.350469038434065,50.45987626369549,274.8910385156508,-4.704598374132962,51.235848981432554,270.2891450798404,-24.34659057036294,52.88421972073442,218.55593691103775,-76.64166099936098,57.592161518251395,1.6463939763939766,0.2820187220187219,0.26072446072446087,-0.020329670329670257,-0.011286121286121165,0.003,0.05312811558811559,36483768.01727013,17923719.77946192
R3:parametric:-0.05,1.6475824175824174,1.6495970695970696,211.4176621738038,39.32008372224995,47.48402162103397,274.1598040147475,4.4100941717502575,49.406705244670036,274.67450350881813,-4.681824059471443,50.49242157481596,270.32781838078677,-24.310331628512724,53.78785192889018,218.91131312149886,-76.64769953678518,58.259136201375966,1.6476353276353275,0.28231583231583257,0.2611925111925111,-0.020903540903541074,-0.011351241351241326,0.003,0.053121599511599504,39044105.19424787,16891724.844440795
R3:parametric:+0.05,1.654029304029304,1.652014652014652,210.48916991499232,39.45988883112036,49.735420655764,273.0396426918833,4.378245426356154,50.85438921783282,273.84331451375516,-4.7301445966258395,51.24477254981538,269.4023789725676,-24.37987290737001,53.205879613814886,217.52613991140743,-76.90666681769498,57.28717361314521,1.6538787138787137,0.28112332112332117,0.26045584045584036,-0.020390720390719985,-0.011107041107041193,0.003,0.05288824175824172,38648050.46785171,17511435.0858564
R3:parametric:+0.1,1.65,1.6487912087912089,211.60959315722693,39.27725975985447,50.18871432966898,274.27185822233287,4.366962534605692,50.315862175194496,274.98633050793427,-4.726557063924705,51.481132932872754,270.31936400540314,-24.414759715081352,53.12000436629213,218.56014373230914,-76.68947562348745,56.25202008021978,1.6496133496133494,0.28240537240537233,0.2613675213675215,-0.020419210419210687,-0.011139601139601107,0.003,0.0531379934879935,38109349.763297655,18827037.059306785
R3:parametric:+0.2,1.650805860805861,1.6504029304029304,211.33063157967246,39.39760950098744,48.84993489478806,274.31282597191745,4.396044794827876,49.04450031089558,274.9210678558147,-4.73714837853735,49.41229148037923,270.3781653938115,-24.411940213057008,52.196133213357996,218.88763019835932,-76.71991012551973,55.828920559496495,1.650989010989011,0.2824257224257225,0.261054131054131,-0.020394790394790308,-0.011562881562881433,0.003,0.053136568986568995,37946713.63525186,18074330.34402898
R3:parametric:+0.5,1.65,1.6491941391941394,211.6848696471164,39.396774499739735,48.80297034630584,273.97126104965776,4.38908637117709,49.534360245207715,274.5811753474487,-4.726717302279518,50.055256902316785,269.90204579833596,-24.521418761863085,52.80352281801422,217.513440222441,-76.52087819804082,55.84965685707093,1.6501221001221,0.2819291819291817,0.2613268213268214,-0.020606430606430637,-0.011347171347171447,0.003,0.053083707773707786,38732803.854959816,18002473.99336335
R4:open,1.654029304029304,1.6463736263736264,213.1357893722919,39.30387391631045,41.679086009903216,275.13875512815076,4.37437636815626,42.37675463531121,275.8624113619894,-4.695202418004563,44.0593352674789,271.0024570115247,-24.275464754593145,46.90950372302012,220.02354322005777,-76.66886146765495,51.07541330204901,1.6537566137566135,0.2833374033374034,0.26177045177045166,-0.02056573056573041,-0.011481481481481648,0.003,0.05332773707773707,36921540.15262688,16941577.33241319
R4:short,1.652014652014652,1.65,1.2048241049940842,41.229668832484805,-22.73129513495467,1.6004793709587413,21.840027248366212,-20.265300011065662,10.150427662427049,76.94271253342558,-4.219964459576202,60.85650579699096,62.356173049107305,11.33649528831248,199.22875209334512,-19.972611826574955,21.637180099782753,1.6517378917378918,0.10711436711436695,0.001465201465201349,-0.10686609686609694,-0.00022385022385018605,0.002,0.0004623768823768475,1549127.6569359796,10192422.562650552
R4:parametric:-0.5,1.6483882783882784,1.65,210.57709334136234,39.26932087651565,41.11872976074802,273.451258782143,4.401435382425071,41.59096688712915,274.10970587670533,-4.692069947277697,42.022607137221016,270.08011480252424,-24.2706366924089,45.48267829729228,218.40617784530693,-76.59076157636761,50.175768657384964,1.6484615384615384,0.28186813186813187,0.26054538054538057,-0.020870980870980715,-0.011302401302401344,0.003,0.05297711436711439,38518529.21921815,17144991.839396104
R4:parametric:-0.2,1.6447619047619049,1.6487912087912089,210.79819136402966,39.32187758350185,47.87004832749031,273.80769559607137,4.402422058495249,48.809850445777116,274.5535532301268,-4.678690707042726,49.172875557239976,269.65424195505176,-24.315020845836948,52.093868212886065,218.97183877388952,-76.79508296672,55.55645416554509,1.6445665445665445,0.28212861212861207,0.2610256410256411,-0.020805860805860887,-0.01114367114367143,0.003,0.053048188848188835,36363264.19666225,18102757.942262053
R4:parametric:-0.1,1.6467765567765569,1.6495970695970696,211.0405079396187,39.25244843221914,48.093639908928026,274.0086358253973,4.389551686215485,49.05664665542163,274.7281856027867,-4.7330050429075,49.71119732071414,270.12905052349106,-24.458007518527545,52.59020300633203,217.5809738594815,-76.9620076757237,56.84553504948831,1.6466300366300366,0.28221408221408206,0.2609727309727309,-0.02065120065120063,-0.01131461131461109,0.003,0.05311804232804235,40212293.22252609,18235953.33236538
R4:parametric:-0.05,1.652820512820513,1.6495970695970696,212.06833017533117,39.30431098583648,49.17566746309949,274.0297177694963,4.402368167719543,50.742936882596595,274.62084747157223,-4.675062401956769,50.18312553287228,270.21641560598454,-24.273162799951407,53.55600486268118,218.9318734153165,-76.5378356399284,57.30980179617748,1.653024013024013,0.28223850223850233,0.2609849409849413,-0.02057794057794049,-0.011298331298331243,0.003,0.053101192511192545,37919881.62916446,17233445.957584277
R4:parametric:+0.05,1.652820512820513,1.6512087912087912,211.5706453769712,39.314171634494684,47.25471760854925,274.10139059948307,4.371950246470903,48.82645821705195,274.78504254299884,-4.743298527388344,49.34721530988338,269.9060067599769,-24.449952335428492,52.43662374259419,217.8486164091181,-76.95092641421704,56.79764114295399,1.6528490028490028,0.28175010175010173,0.2611762311762311,-0.02009361009360977,-0.011155881155881398,0.003,0.053142303622303655,40164481.08688671,18078637.81821479
R4:parametric:+0.1,1.654029304029304,1.6504029304029304,211.99103032586356,39.114419553823524,49.72040362752472,273.80509925182866,4.35867598142289,49.799725463891846,274.424332751276,-4.747834985276611,50.167569925066545,269.50085584765714,-24.50607587488939,53.198509602158055,218.79528070117567,-76.70057441902674,57.360863694700406,1.6539234839234838,0.2815628815628817,0.2609930809930806,-0.02026455026455054,-0.011229141229141093,0.003,0.05308976393976391,39568427.80363868,17033893.12102482
R4:parametric:+0.2,1.6471794871794871,1.6491941391941394,210.69500087090847,39.247128475620514,50.82708313632178,273.8408221524836,4.399831516701607,51.612507655956875,274.449332696006,-4.729113989949836,51.674315720722575,270.0327034674371,-24.477101812046087,53.86275019745299,217.77439550878563,-76.55480511700087,57.59370881192807,1.6472283272283277,0.28175417175417194,0.2609727309727309,-0.02024013024013016,-0.011054131054130889,0.003,0.053084167684167696,37260632.94514833,18328110.434983067
R4:parametric:+0.5,1.6487912087912089,1.6504029304029304,211.8048308842046,39.249144040722534,48.51824812948787,274.37010905722,4.375649817837573,49.62454396819983,274.8822206850705,-4.713870066731953,50.5655165244537,270.1894332107648,-24.364949427757825,53.612966359038865,218.94547135691198,-76.80830583813574,56.28603867765739,1.648783068783069,0.28216931216931196,0.2612372812372812,-0.020358160358160182,-0.01117623117623101,0.003,0.053175449735449756,39200776.34948836,17856597.70039992
C1:open,1.647985347985348,1.6504029304029304,211.20967526997012,39.254374464643355,48.08788219620887,273.70617101998545,4.382448794688257,48.61725561314839,274.38525926576324,-4.733528678591476,49.14769208082387,270.0438253216046,-24.472790490422454,51.696355382944574,218.2855166502677,-76.41939390745411,51.460971333339714,1.6476556776556774,0.2818355718355714,0.26102157102157086,-0.020793650793650698,-0.011184371184371211,0.003,0.053027562067562074,39634169.68848821,17905098.567341417
C1:short,1.6495970695970696,0.04996336996336996,0.07136755816568494,39.221080928326145,53.73627379583259,0.06815233512054772,4.45028989154732,54.20094848030691,0.07522451988909509,-4.121713098193984,56.40746512764255,0.0786241639814178,-22.021636730526225,52.75469107767948,0.06902672239302614,-71.88405757196485,55.67176674281234,1.6494831094831093,0.003296703296703396,0.001257631257631231,-0.0035897435897437324,-0.0010907610907612275,0.009,3.4884004884038866e-05,155461.49408624374,73207.2081848053
C1:parametric:-0.5,1.65,1.6487912087912089,211.75925808774863,39.06135733938726,50.1961135098812,273.9029270726445,4.354237945858689,51.316534369748695,274.5753401585841,-4.704814324453695,51.38978311744509,270.70021103151345,-24.35399482135614,52.82020488321245,219.08078379064193,-76.89804052491914,54.96446611015024,1.6500447700447698,0.2827106227106224,0.2612820512820514,-0.021127391127391038,-0.011221001221001337,0.003,0.053087183557183594,39362160.205342814,17988330.13428993
C1:parametric:-0.2,1.652820512820513,1.6495970695970696,212.13192992330127,38.97741255283241,49.768643964209005,273.54473990864943,4.368206270544326,50.0846767482345,274.4255692777088,-4.733771769351359,51.354470478831104,269.91014393921637,-24.310119334344307,54.58888176465279,218.31644129859086,-76.56589022937979,58.41710938663883,1.6525234025234026,0.28183964183964183,0.26081400081400063,-0.020443630443630623,-0.011310541310541322,0.003,0.05302430606430604,39294028.45977198,17352723.957176406
C1:parametric:-0.1,1.6504029304029304,1.647985347985348,210.8704465003049,39.22571522409565,47.507695002851854,273.0819739346367,4.372022805469884,47.64938237270542,273.6158500474278,-4.712006406763759,47.98824395437178,269.24969187054114,-24.520048386227344,51.37662512729756,217.40373720682152,-76.56349523691452,54.85721911883391,1.6506959706959707,0.28117623117623125,0.2601383801383803,-0.020158730158730043,-0.010887260887260886,0.003,0.05290964183964185,42059030.26469163,19052683.254034616
C1:parametric:-0.05,1.6471794871794871,1.6463736263736264,210.59293770870985,39.241014089979146,47.133791071805874,273.1484588801458,4.361383458596286,47.34679019609628,273.8880883616614,-4.795355827444339,47.886537633292164,269.1809238228482,-24.623422046350242,51.25043081932375,216.2070714704501,-76.9164073202555,56.01342657130414,1.6472812372812369,0.2811151811151812,0.26001221001221,-0.019637769637769642,-0.011115181115181061,0.003,0.052932967032967015,42102520.54937677,19347422.936581455
C1:parametric:+0.05,1.6495970695970696,1.652014652014652,212.51270880811782,39.14039492975238,50.82508092373442,274.10691527224077,4.336202114333135,50.892092677463296,274.730915793617,-4.723203571218383,52.00782591204714,270.1677840691832,-24.397343258216125,53.93739244651354,218.73109735661666,-76.77749837504433,57.850717148475404,1.6496377696377695,0.28204721204721217,0.26090354090354073,-0.020427350427350444,-0.011037851037851265,0.003,0.05312551485551485,38669466.53038414,17801496.270623054
C1:parametric:+0.1,1.6475824175824174,1.65,211.42662645125452,39.19905524847988,47.43080672209955,273.05395177488094,4.364770637387429,47.611182098048104,273.7226282362087,-4.725247737620235,48.756041720858796,269.80182223507416,-24.36040673440641,52.45094302983071,217.66894665328778,-76.41216699151155,56.226651602250854,1.6476068376068378,0.2816646316646315,0.26029304029304035,-0.020610500610500515,-0.010968660968660893,0.003,0.052910036630036655,38855892.09458025,17698689.691563785
C1:parametric:+0.2,1.6516117216117214,1.6487912087912089,211.68400656492724,39.40924755901773,49.36137578818205,274.0117980503546,4.4058668628135145,50.55226235727761,274.9679446506831,-4.720015355753524,51.93713785215857,270.37195764152807,-24.369378623197328,54.01710044911573,218.71294888923717,-76.75078301432109,57.53515607165613,1.6517216117216116,0.28276353276353294,0.2611884411884413,-0.020691900691900633,-0.011176231176231344,0.003,0.05310605616605616,38293315.51970592,17518988.590071753
C1:parametric:+0.5,1.652014652014652,1.6495970695970696,211.03596258128542,39.301698774252785,47.63586715161084,274.02571732114575,4.377983946875867,48.63518211002426,274.45199554076066,-4.766696084485728,48.94561180612166,269.7821537351923,-24.42867647098595,51.318327441176024,217.37844053959094,-76.41623671457884,52.55960746415957,1.652083842083842,0.2819373219373221,0.2605860805860807,-0.020191290191289957,-0.01112332112332115,0.003,0.05308386243386247,40663065.74383112,18151376.939119965
C1:cap_degradation:+0.2,1.6532234432234434,1.6491941391941394,211.54404814171153,39.22529151912214,47.897737588332596,273.91297700620237,4.383321451958246,48.47975366951073,274.595677951725,-4.736100213658416,50.56419580467702,270.50018462481967,-24.370160903258064,53.17715648437581,219.55116401770948,-76.79003219144352,57.497830585241516,1.653333333333333,0.2825152625152625,0.26121693121693157,-0.021009361009361127,-0.0110500610500609,0.003,0.05306867724867729,39945519.24234395,17491911.39961425
C1:cap_degradation:+0.5,1.6495970695970696,1.654029304029304,212.13196842052486,39.101202600093515,47.98856418673898,273.5422805600614,4.3411466002332055,48.078778549651695,274.1438945002285,-4.792908188795806,48.71843573449243,269.8169528399874,-24.639458817929462,51.082124202512546,216.98523174410457,-77.00783881324288,53.39612593466508,1.6497313797313797,0.2818884818884816,0.26085470085470064,-0.020203500203500147,-0.011045991045991244,0.003,0.05301478632478625,38993843.60622491,18471071.732932724
C2:open,1.6491941391941394,1.6512087912087912,211.402586190323,39.099911109248424,46.620420605744364,273.2220140236858,4.352094719319007,46.94802932835071,274.01614429736395,-4.742260063932996,47.58580618892509,269.50642608019604,-24.5726370209338,50.28597312091568,216.86422231399843,-76.82709472104534,49.7831008243342,1.6493976393976393,0.2813268213268214,0.26041514041514047,-0.019947089947089824,-0.011290191290191265,0.003,0.05295436711436711,39457667.3366221,18902153.261612408
C2:short,1.6491941391941394,3.249230769230769,0.11094326776275042,39.22171827120553,57.92075583393098,0.10791840096917935,4.42909872918708,57.57470051814784,0.10808565371103646,-4.560003233950564,61.1730740727621,0.11712138925658758,-23.95989251522554,58.06687282987859,0.10999366103567909,-76.45250357436746,60.76816003302051,1.6494179894179894,0.0035246235246236823,0.0010297110297107226,-0.003728123728123589,-0.0012698412698410877,0.0055,3.900691900692732e-05,243843.57622355293,64958.07264849893
C2:parametric:-0.5,1.6447619047619049,1.6487912087912089,212.08790506163783,39.127985539587655,51.736300446978134,274.1232921008326,4.394239886959271,52.02124483596366,274.5893708551891,-4.691820741723147,52.172289642414064,270.4457764064828,-24.19809142866474,54.082764907285856,219.41807106817456,-76.46954840883936,56.03896811318166,1.6447496947496947,0.28258445258445275,0.26106634106634063,-0.02106634106634131,-0.011094831094831337,0.003,0.05312641432641435,37619423.55088203,16943156.90566811
C2:parametric:-0.2,1.6504029304029304,1.650805860805861,212.2371110860435,39.33113570793385,48.429587495275726,273.9701535062726,4.394502117095792,49.798108864302066,274.6787251721378,-4.699320734200784,50.894185325795156,270.4276092347363,-24.30506883416277,54.58476075236852,219.39124447183266,-76.59470768632515,58.23455537653733,1.6504477004477003,0.2826495726495727,0.26113146113146124,-0.02085063085063088,-0.011310541310541322,0.003,0.05309535612535614,37709596.7631795,17259214.164074168
C2:parametric:-0.1,1.650805860805861,1.6487912087912089,211.14596156931736,39.189637822101965,47.10898930623713,274.0396761622591,4.3424256668435,47.61665183302509,274.6565385113661,-4.730127892077478,48.59147363310595,270.31158872578226,-24.422862896983663,51.26932258462355,217.57133490932296,-76.84138809512926,55.82680692246182,1.650789580789581,0.2821611721611722,0.260972730972731,-0.020500610500610694,-0.01111925111925105,0.003,0.05312317053317055,39861486.83195093,18564466.185195446
C2:parametric:-0.05,1.6491941391941394,1.6495970695970696,212.22730392902628,39.25444323328969,49.31494425800986,274.3511471257809,4.395840237556968,49.96456411270185,274.8760086035698,-4.730164384524999,50.339492361560914,270.11684966604054,-24.4270135696934,53.784293251503804,218.87466174835623,-76.56788201497798,58.86377654577234,1.6492714692714694,0.28182743182743186,0.26148148148148154,-0.020411070411070487,-0.01113960113960133,0.003,0.05316159137159134,39224717.42669386,17838506.346372582
C2:parametric:+0.05,1.6467765567765569,1.65,211.79581629209528,39.143422096915,48.51678254060206,273.9696039293028,4.377979948462164,49.29433853404322,274.57868250487365,-4.732900025614427,50.18215113768731,269.8796553776933,-24.49561771468486,52.734257124535795,218.25365346809593,-76.98124448605705,56.687127873708505,1.646768416768417,0.282035002035002,0.26086284086284084,-0.020166870166870354,-0.011261701261701562,0.003,0.053119161579161606,39392673.95152445,18466047.6296935
C2:parametric:+0.1,1.652820512820513,1.652820512820513,211.53946771860154,39.28171568453812,47.87158478311649,273.58156134968084,4.380681978437462,48.646254679267464,274.2964928215522,-4.78255569730117,49.99883901916261,269.9363720737947,-24.5247195616885,52.59155155189731,217.91063395108912,-76.7175399527762,55.86292745074199,1.6531583231583231,0.28138787138787136,0.26074074074074105,-0.020203500203500147,-0.011318681318681412,0.003,0.05302785510785514,40422104.37314162,18567933.94725886
C2:parametric:+0.2,1.6455677655677656,1.6495970695970696,212.1924769929377,39.21359624548401,52.8585768690963,273.976722265905,4.400820844520388,52.862659351945915,274.6607847084582,-4.705564899502379,52.19622403102986,270.6872536769706,-24.43589561701458,54.1825130383717,218.66503391688582,-76.89361202689096,57.225972365575785,1.6456247456247455,0.28258038258038265,0.261347171347171,-0.020732600732600415,-0.011282051282051286,0.003,0.053090468050468034,36673655.06072065,17693227.76723324
C2:parametric:+0.5,1.647985347985348,1.65,211.24101213325602,39.23613418119578,50.263048618580434,272.6299336691526,4.375385455608163,50.237242706956835,273.6689052207561,-4.742348104620931,50.349123097854,268.9261419518574,-24.409959769624344,52.922259587373404,216.74564230193116,-76.51366021594964,54.045874839128544,1.648038258038258,0.2809645909645907,0.2603378103378102,-0.020085470085470236,-0.011102971102971315,0.003,0.05285608465608466,41607376.182567045,17866782.225608923
C2:cap_degradation:+0.2,1.6504029304029304,1.65,212.25605030371844,39.246987042020905,49.74021097189676,273.66751739565717,4.37061402009994,50.262149626190684,274.3301475968807,-4.734840009308085,51.36879854164439,270.2549879408017,-24.345827340055116,53.52131410712845,219.05406530303742,-76.8807021987525,57.387210684019806,1.6503907203907202,0.282153032153032,0.26102157102157075,-0.02057794057794049,-0.011237281237281183,0.003,0.05302610907610912,38122750.42934996,17383761.12899822
C2:cap_degradation:+0.5,1.647985347985348,1.6512087912087912,211.15692728861538,39.298683739663275,48.57769979604177,273.74966520496486,4.40706931958681,49.24695672102416,274.1742952374185,-4.711970381334027,50.22001085233491,270.04876094766416,-24.466169571679192,52.92286202447609,217.88017624276077,-76.93266974500175,54.03336307587339,1.647985347985348,0.28164835164835145,0.2607448107448108,-0.020679690679690443,-0.011277981277981075,0.003,0.05304030932030929,37518594.15216622,18116418.457709488
C3:open,1.6471794871794871,1.652014652014652,212.2131558625433,39.07960628214839,50.09877044868741,274.0078781760621,4.473870595264252,51.501185422103944,275.2018573906173,-4.147792109684309,51.46173240041033,274.4240097437308,-22.53425687922773,54.04425762621639,226.48164924178883,-74.22053988918614,58.0348861384588,1.647077737077737,0.286194546194546,0.2613634513634515,-0.02664224664224668,-0.011123321123321261,0.003,0.053153817663817646,38402578.52688984,17938855.171824165
C3:short,1.652014652014652,1.6504029304029304,0.03093962048664107,38.43316856560183,25.982984142799626,0.02951928396539261,4.235134604687637,22.24149316629152,0.03083949921220733,9.390650832685697,22.006996542130285,0.029916963046418284,3.964719380697023,22.996366540771753,0.028266913258309094,-40.48444034115295,24.03256020624401,1.6516524216524218,0.002706552706552623,-0.00012210012210012167,-0.0031135531135531025,-3.256003256024709e-05,0.045,-9.157509157768918e-07,28632.91971657655,32990.85329864732
C3:parametric:-0.5,1.650805860805861,1.6504029304029304,211.19064187758298,39.166248717037504,48.3491555486701,273.5037281178491,4.430306510406687,49.16625383580847,274.39184542832623,-4.4676582033650245,50.11776801765194,271.832598767704,-23.700812335118492,52.56841335765035,221.4942579781757,-75.70242837126202,56.918259315879396,1.6506145706145705,0.2836182336182336,0.26085063085063087,-0.02345136345136345,-0.011229141229141093,0.003,0.05303200651200655,40014000.27208805,17747399.627561472
C3:parametric:-0.2,1.65,1.65,211.87401865686462,39.39861794927339,49.374996426354016,274.1969767443246,4.415217830521411,49.561080153746694,274.8965023858708,-4.6041918683499485,50.22508179418919,271.5811041592483,-24.078158027552305,53.38636637404435,220.12622848583442,-76.55119202951667,57.31927123087598,1.65002849002849,0.2834554334554332,0.2613634513634513,-0.02170940170940161,-0.011159951159951054,0.003,0.05314122100122105,35521559.23505255,18004405.430632845
C3:parametric:-0.1,1.6491941391941394,1.6491941391941394,211.59597212830786,39.36250737476334,48.68018113057666,274.16175144332783,4.402237120456521,49.7501493072741,274.81426692968626,-4.696915961437446,50.61705465431531,270.60859616332783,-24.436301174755947,53.29523576559957,217.70042394501917,-76.71132282863957,57.21202792118156,1.6493121693121693,0.2823199023199022,0.2614489214489213,-0.02106227106227121,-0.011347171347171336,0.003,0.05312753357753364,38878580.9891064,17524211.107488427
C3:parametric:-0.05,1.6512087912087912,1.6504029304029304,212.06938212842226,39.21020507593615,49.674294086508,274.46098096339466,4.383832640317907,49.99727082139202,275.0275250806704,-4.671379949406743,50.808218051261896,270.84737548704675,-24.185970133648965,54.48021065105743,219.58530840961032,-76.39216597739164,58.223261301224085,1.650883190883191,0.2828897028897027,0.261465201465201,-0.02119658119658152,-0.011172161172161021,0.003,0.053178897028897,37784640.53830534,17473655.005127527
C3:parametric:+0.05,1.6487912087912089,1.6504029304029304,211.76793728357376,39.283264936222224,48.72347896631366,273.5287121420648,4.385543101553022,49.11547495554041,274.266790306491,-4.74231555011382,49.755394701893835,269.4235557690016,-24.430000828775476,53.314873342776664,216.75572562191144,-76.73981149501495,57.602471340107144,1.649023199023199,0.2817582417582417,0.2610663410663412,-0.020073260073260046,-0.011355311355311204,0.003,0.05300609279609279,39484606.93901516,17967307.0935529
C3:parametric:+0.1,1.6512087912087912,1.6495970695970696,211.1397551210677,39.29056921625579,48.8577978108109,273.5486262922875,4.363344442335446,49.01820150061124,274.1340262054413,-4.797623367486722,49.21371665292561,269.23388149775394,-24.667044439199735,52.033583473448964,216.65817103164395,-76.87596577682201,56.10917939153605,1.651090761090761,0.2811192511192512,0.2606959706959703,-0.019426129426129535,-0.011107041107041193,0.003,0.05299725274725276,41231705.56714551,18313300.19569054
C3:parametric:+0.2,1.6504029304029304,1.6512087912087912,212.31505452965735,39.37565679995746,48.51130293384608,274.8209598732871,4.396015432862103,49.45146094205255,275.44687783582253,-4.818299488933025,50.67450656295276,269.8892939991115,-24.770532434416637,53.5696150598675,217.4078382655306,-77.24889681875453,58.27542575979522,1.6503052503052502,0.28262922262922263,0.2617541717541718,-0.01971916971916965,-0.011216931216931014,0.003,0.053223988603988595,36863386.03122097,16720552.83806754
C3:parametric:+0.5,1.650805860805861,1.650805860805861,211.5005085440562,39.18780438185443,47.565695292457534,273.61903134880055,4.34916434524747,48.35993310218343,273.97168496907454,-4.945047656545512,49.13862468232922,267.519968654604,-24.927097282332355,52.71447318671273,216.0572089624904,-77.50205202429883,58.28813464661763,1.651074481074481,0.2797232397232394,0.26103785103785115,-0.018201058201058107,-0.011347171347171114,0.003,0.05300848595848602,38943494.147283316,17991646.408074096
C3:cap_degradation:+0.2,1.647985347985348,1.6512087912087912,212.41029310095445,39.290063541403526,50.75548808651332,274.31312414189745,4.395432011583395,51.06804390815559,275.03001840391266,-4.595353590698357,51.866771427931575,271.29872118093556,-24.146395459596313,53.592131306499624,220.54907530130092,-76.31533638136722,58.20709349751758,1.6480463980463982,0.283911273911274,0.26130647130647155,-0.02196581196581171,-0.011282051282051397,0.003,0.05314368742368748,37039795.55568737,17932190.676474895
C3:cap_degradation:+0.5,1.65,1.6495970695970696,211.6091897466572,39.34282739668267,50.58196668824078,274.24589691939434,4.434535526367781,50.76754313456572,275.0759146646705,-4.473478895869388,51.12295268391894,272.5634461323709,-23.715205756165552,53.127574869762654,221.70531663699762,-75.66235048856531,56.83708600976573,1.65003663003663,0.2844525844525846,0.2611925111925112,-0.022893772893772923,-0.011375661375661483,0.003,0.05314757020757026,38702841.295914665,18543443.91576343
R5:open,1.6455677655677656,1.6495970695970696,52.484981007309315,39.20170725403541,49.217553581365095,68.11417660741034,4.389582276021185,49.81668642734326,68.26966356102834,-4.693527226305127,50.178203159329954,67.0912846517559,-24.387651101599772,52.896715805712304,54.27116466789354,-76.69724482100453,56.82552213206361,1.6456857956857955,0.07052503052503023,0.0645991045991049,-0.0063776963776965845,-0.0028774928774929487,0.003,0.013202218152218169,9996966.282751465,4580381.960770297
R5:short,1.65,1.6512087912087912,370.75303886938104,39.257528035882984,48.654125842465206,480.3925210623022,4.365096002659399,48.97676872050141,481.1012138499408,-4.803338534032907,49.289702348868246,473.1802924296666,-24.714340661963313,53.14313546958756,379.8305556701784,-76.89269114881722,56.868889412883036,1.6498453398453399,0.4943915343915344,0.4580463980463978,-0.035258445258445126,-0.019837199837200115,0.003,0.09307954415954414,68108376.00378165,33114786.35929872
R5:parametric:-0.5,1.6463736263736264,1.6487912087912089,264.7029033608278,39.31021933812059,48.07833514263247,343.18296839766606,4.396783662234889,49.69716349475853,344.0276751734092,-4.722105372127277,50.56222810897994,338.3047204348626,-24.32248523631766,53.16495467621404,273.1946450004433,-76.82624106578538,56.8254996160385,1.6464102564102565,0.3531990231990232,0.32701668701668707,-0.025612535612535847,-0.014196174196174138,0.003,0.0664990761090761,47621424.59023227,21767793.57561164
R5:parametric:-0.2,1.6576556776556777,1.6504029304029304,229.49901487487756,39.258723543316286,50.02715727832535,297.09546690687756,4.384394853785299,50.30205784553432,297.9543123269833,-4.705249090436041,50.462638343994094,293.04452642899605,-24.425491531970316,53.07288012029704,237.1836689327522,-76.56333813093838,56.69176380156933,1.657631257631258,0.30625966625966616,0.2831298331298331,-0.02245421245421242,-0.012205942205942177,0.003,0.057586316646316665,42369855.31691906,19660620.618701495
R5:parametric:-0.1,1.6475824175824174,1.6504029304029304,219.1621391959444,39.1748740598105,48.93397745084057,283.7871354890751,4.37354539022062,49.19852097084282,284.36726030694194,-4.72758860695704,50.06729451590506,280.2566575360839,-24.359319190432984,53.00351233255699,227.11858196278396,-76.94844226760426,56.74750686462255,1.647541717541718,0.2929059829059828,0.27056980056980084,-0.021436711436710887,-0.011656491656491963,0.003,0.055018746438746435,41773701.03689714,19595304.83804066
R5:parametric:-0.05,1.647985347985348,1.647985347985348,214.8947317615589,39.268634915437275,48.02424214125338,279.4004702876248,4.4026108594646125,49.453534798021714,280.0176534079585,-4.73509184201845,51.303722740739865,275.0040449218729,-24.372627993865823,53.22260915658616,222.16790609244092,-76.85882497181112,57.15084165505015,1.648262108262108,0.28714285714285737,0.26591778591778603,-0.021131461131461027,-0.011452991452991723,0.003,0.054110704110704115,38611574.5668584,18298622.399566323
R5:parametric:+0.05,1.650805860805861,1.65,207.55187962942318,39.32166915843463,46.82942889582988,268.7835670737518,4.404930761300282,47.68752519685797,269.42299038754925,-4.769633135542198,48.05411104604272,265.14819734215996,-24.468442475167684,52.2678200130581,213.25264200873232,-76.96786421011569,57.11958323485909,1.6511233211233212,0.2765893365893365,0.2558811558811559,-0.019971509971510315,-0.010895400895400975,0.003,0.052099544159544146,38181560.549695075,17239581.766238242
R5:parametric:+0.1,1.647985347985348,1.6504029304029304,204.24960274977423,39.24636339495417,50.133169206655005,264.3640484699762,4.397838972964363,51.01947200765834,264.81693116656237,-4.71139123662922,51.214128257436116,260.5003910538101,-24.42375247846327,52.892215483297704,210.40886648801978,-76.5464506100598,56.93408747380734,1.6482214082214082,0.2718070818070819,0.25190883190883195,-0.01967439967439999,-0.0111843711843711,0.003,0.05121885225885228,35390181.6884467,17684980.273349933
R5:parametric:+0.2,1.6504029304029304,1.65,197.99868752911178,39.05446732175383,48.02382113896594,255.28330091502926,4.349033516105759,48.746598060898265,255.85670523118182,-4.750105609460395,50.35077343038108,251.28498490893105,-24.526014398661538,52.61289224178204,202.859660556553,-77.07238276576874,57.09665883235703,1.6505128205128203,0.26249491249491264,0.24331705331705333,-0.018966218966219084,-0.010386650386650542,0.003,0.04947050468050465,36655653.28426273,16863799.8797777
R5:parametric:+0.5,1.6495970695970696,1.6516117216117214,180.19363178182633,39.29546972163324,49.65626436589954,233.05071838052396,4.388501745645826,50.047043028151194,233.6378638223381,-4.6755333382777025,51.12445471512519,229.96519329720027,-24.24363199506957,53.97504818182077,186.40882038836997,-76.78237450555366,58.27491903266758,1.6496174196174196,0.24041921041921033,0.22221815221815233,-0.017606837606837344,-0.009438339438339383,0.003,0.04516738298738303,31273220.479301386,14321553.195351675
R6:open,1.654029304029304,1.6504029304029304,52.72820649103074,39.28135364982199,49.55857241008212,68.19396676507688,4.388600464153898,50.46997500966756,68.35135556575938,-4.691711023095332,50.96593130498366,67.11933028179168,-24.31886979719816,54.174605815616154,54.125079474087904,-76.67015405969636,57.35244365282869,1.6541432641432636,0.0705820105820103,0.06462352462352461,-0.006353276353276316,-0.0027798127798129846,0.003,0.013210781440781475,9412122.40306466,4541445.804732874
R6:short,1.6471794871794871,1.6483882783882784,368.74595686529483,39.42743323625999,47.68206393771102,478.89144104074717,4.4340563841346174,49.331049390169184,480.01108399999123,-4.706732212256323,51.15167099345699,472.0081750897616,-24.318410896984716,52.73603711933109,382.9235290289756,-76.46029678463158,58.031072860593156,1.646947496947497,0.4931583231583231,0.4566381766381765,-0.036792836792836625,-0.020020350020349853,0.003,0.09285784289784293,67702426.8196995,29862632.03382505
R6:parametric:-0.5,1.6495970695970696,1.6483882783882784,265.13650033303054,39.19562857351623,49.73526630575339,342.6630736992646,4.382961966495769,50.30869878494761,343.70030411038624,-4.742601599268712,50.74229516867375,338.1638859347019,-24.390589301632126,53.54188901431627,273.3052440333763,-76.64103218638365,57.36069012872226,1.6494220594220592,0.35269434269434274,0.3265120065120064,-0.02537240537240526,-0.014135124135124189,0.003,0.06643163614163616,47612271.09249167,22013050.481570467
R6:parametric:-0.2,1.6487912087912089,1.652014652014652,228.99032294335606,39.29569732524611,49.47777083538142,296.4548508802462,4.411623000392753,50.553625434689714,297.24413986997854,-4.71051371972395,51.16562838450159,292.3111563147188,-24.506958502394085,54.16087426863237,236.14778045944678,-76.68242234434513,58.422457180713764,1.6485144485144487,0.3050712250712252,0.28262922262922263,-0.022299552299552272,-0.012124542124541726,0.003,0.05743634106634106,41521128.59520239,18886365.037294287
R6:parametric:-0.1,1.6532234432234434,1.6504029304029304,220.34496433727458,39.08597947364197,48.96509030294318,284.6047325410151,4.358632738121912,49.119103188089476,285.49123279896696,-4.746510829880284,51.05570862696405,280.12980985220673,-24.554364880260902,53.848005443244844,225.83777907828258,-76.90004169987668,57.19230958048486,1.6531420431420432,0.29291819291819277,0.2711558811558814,-0.02093203093203111,-0.011619861619861616,0.003,0.055161562881562806,39718713.33473351,18962263.922790542
R6:parametric:-0.05,1.6536263736263737,1.6487912087912089,215.5363955373491,39.12571135734391,47.71767389483223,278.74047001876954,4.363772694393926,47.88283319646541,279.36383754935594,-4.80302904544998,48.73160872973506,274.5817194763533,-24.73512504207138,52.41912076748312,220.04628574776387,-77.00035169389554,56.05054300293565,1.653353683353683,0.28621489621489626,0.2654822954822956,-0.019951159951159814,-0.011457061457061712,0.003,0.05399774521774524,41685877.62608002,19817164.49543421
R6:parametric:+0.05,1.647985347985348,1.6495970695970696,206.71316765921617,39.1389305942297,47.251110208401855,268.2117183566236,4.364152584250192,48.10978010863457,268.87600065519143,-4.715703609145383,48.51222932447433,264.49308018719233,-24.517998045612813,51.19932061544646,214.49894992700848,-76.7506035294144,55.7116402711234,1.6476923076923076,0.27611721611721596,0.25599104599104616,-0.020077330077329925,-0.010960520960520914,0.003,0.051969051689051686,39426742.69603691,17284756.27044779
R6:parametric:+0.1,1.652014652014652,1.6504029304029304,204.06628788166816,39.40628129602541,49.1206235154052,264.4487976975631,4.397061906773079,49.84275762782057,264.99058680487144,-4.737512766527136,51.24194557970388,261.09308328301296,-24.477482870281207,53.67574770944237,211.21429876656492,-77.08779596389172,57.16065871114524,1.652043142043142,0.27200244200244195,0.2518355718355717,-0.01990231990231961,-0.010887260887260775,0.003,0.05121625152625149,36400210.281466864,16835414.73549431
R6:parametric:+0.2,1.6556410256410254,1.6487912087912089,196.83890951680888,39.2866739174648,49.15139381649884,254.65098538916632,4.374723169721227,49.408033873665374,255.1512070917177,-4.7153918129183445,49.797348681196,251.240871708177,-24.336739504073705,52.71372389619064,204.0565150967177,-76.82631817115939,57.24265264385434,1.655828245828246,0.2622792022792022,0.2424420024420023,-0.019389499389499187,-0.010447700447700603,0.003,0.04934937321937321,37308312.3809928,17324507.324149713
R6:parametric:+0.5,1.6512087912087912,1.6495970695970696,179.57153715243032,39.28957643462226,49.79178942076246,232.29494130857162,4.379860161134099,50.044045614177065,232.8837203429108,-4.744678470580485,50.400183412222106,228.6318124568332,-24.445223101670823,52.83743627510329,184.57267809199482,-76.5577488653708,56.74205908039657,1.6513634513634514,0.2392511192511193,0.22137973137973144,-0.016890516890516682,-0.009417989417989658,0.003,0.04499739112739112,34031514.67785919,15667242.00582793
R7:open,1.6487912087912089,1.6495970695970696,211.96838063809088,39.126681334947776,50.953945890949534,273.6623143757222,4.3856546259459535,51.51560295189174,274.4876107200367,-4.625619314352638,53.25743404345019,270.57154659116577,-24.223593089078058,55.44462301682542,218.9947825020277,-76.68275176985063,60.425332768145495,1.6490842490842494,0.28237281237281264,0.2608872608872608,-0.02164428164428167,-0.011192511192510857,0.003,0.053039153439153455,36264118.25379144,15893734.946616283
R7:short,1.6471794871794871,1.6512087912087912,211.88964588419282,39.3075914095332,50.15055641821493,273.8179909757578,4.40818123169378,50.103895469127664,274.6115293467411,-4.69724689460398,51.149505339513254,270.45382849810767,-24.370949014322562,53.36991521035324,218.4711594979163,-76.71626910862352,57.84253009376873,1.647045177045177,0.28490435490435484,0.262702482702483,-0.022812372812372805,-0.01171754171754158,0.003,0.05334345950345952,36791612.607877865,17397937.033213742
R7:parametric:-0.5,1.6504029304029304,1.6495970695970696,211.8255838079648,39.303589160417204,48.27874863914781,274.3142219280213,4.428361204833701,49.550691758097955,274.73493434891066,-4.712861483185444,50.98514392060364,270.5897087950498,-24.355302274952535,54.093207593309344,218.9018897511759,-76.71572029786817,58.255166944879235,1.6504232804232808,0.28244200244200257,0.26138787138787123,-0.02104192104192093,-0.011290191290191376,0.003,0.05313317460317463,37857300.00088544,17711756.88630514
R7:parametric:-0.2,1.6463736263736264,1.6504029304029304,211.0750066851308,39.25990623751484,48.19686110543391,273.3266585075236,4.398344119483178,48.356951146898936,274.1185325571554,-4.701430307071933,49.18391474543141,270.0939010173977,-24.374540931349294,52.79443897502887,217.9288560540096,-76.71446805697033,57.15294358547389,1.6462718762718764,0.281945461945462,0.2603052503052504,-0.020557590557590544,-0.011025641025640631,0.003,0.052968392348392374,39533074.68359831,17662392.456849653
R7:parametric:-0.1,1.6504029304029304,1.6487912087912089,212.21489495077424,39.22101221439159,49.46222267091542,273.9523202074355,4.377854471002308,50.033210253428706,274.6366720034627,-4.70880389038966,50.98514561261821,270.42138288064626,-24.174454520319728,54.06187894688311,219.62019946563657,-76.31645237918616,57.84034462609368,1.6503052503052504,0.28261701261701266,0.2607855107855108,-0.02059015059015068,-0.011249491249490928,0.003,0.053097346357346406,36765686.9224315,17401842.218604952
R7:parametric:-0.05,1.6455677655677656,1.6471794871794871,211.29987505883253,39.14160305186759,49.64552705272561,274.33821330284206,4.377174961133038,50.394295691701565,275.11292873332275,-4.710159507925054,50.848224341383805,270.6274135844786,-24.466089101698216,52.329160784403086,218.69191252642025,-76.78448607883132,56.079860392257736,1.6456491656491656,0.2821571021571019,0.26139601139601143,-0.020695970695970622,-0.011347171347171003,0.003,0.05314846967846967,38932702.16493778,17812618.168635935
R7:parametric:+0.05,1.6516117216117214,1.6512087912087912,212.29588803512786,39.138348479734546,49.87749740868962,274.35456811089733,4.370449633048611,50.57000045818383,274.8715314670203,-4.711694820352358,51.379188115729704,270.3076704954026,-24.41945061268654,53.836516491397674,218.9697069884075,-76.72340323158367,57.73387070200681,1.6519251119251122,0.2826780626780624,0.2611884411884413,-0.02066341066341071,-0.011424501424501354,0.003,0.053188180708180655,38413057.9768071,17275269.152621537
R7:parametric:+0.1,1.6524175824175824,1.6512087912087912,211.93605028762568,39.23205563364159,49.51161307936504,274.07186087681873,4.377006843249709,50.16149789645163,274.8173930507687,-4.747360329130237,50.415478832683604,270.44367966590437,-24.511037994457233,53.64494610933863,218.62409356721105,-76.96335941017736,57.27098848277316,1.6526048026048026,0.28230769230769215,0.26133496133496115,-0.02038665038665055,-0.011367521367521283,0.003,0.05314021978021977,39819493.33287522,17874329.922681466
R7:parametric:+0.2,1.654029304029304,1.6495970695970696,211.87905455952324,39.32494824247789,48.55993256958619,274.2628432887482,4.362872672740664,49.18173459449605,274.974444872115,-4.719305300606589,50.77104296396146,271.07966634268854,-24.528790975947494,52.09965406355493,217.58638555779308,-76.98924129631024,55.51908678060336,1.653866503866504,0.2825885225885224,0.26160765160765154,-0.020154660154660164,-0.011176231176231566,0.003,0.053170520960520926,38223840.17338046,17707284.735924248
R7:parametric:+0.5,1.647985347985348,1.6487912087912089,212.91705528852924,39.196170903550424,51.461042869659195,274.80302307997135,4.390492391520603,52.895443679305984,275.5116983296403,-4.648545883332806,53.19838801698834,271.6150344062794,-24.162732512912143,55.239360947080414,220.291681526466,-76.30057258620053,59.562780348284505,1.6479039479039481,0.28383801383801377,0.26200244200244194,-0.021147741147741428,-0.01133089133089138,0.003,0.053261277981277985,35264650.10677539,16779432.219537403
R8:open,1.6512087912087912,1.652820512820513,212.0707609590902,39.19980424345619,49.75607361654682,273.89684361433694,4.391648381908276,49.97511050151408,274.5141360911727,-4.74567490281974,50.323478935973114,269.62587471825543,-24.607839532196323,54.168511882910956,217.38472257002678,-77.09567147924042,57.98940867296087,1.650980870980871,0.28140008140008166,0.2609116809116806,-0.02023199023199007,-0.011257631257631462,0.003,0.05306516890516892,38417366.803670466,18225515.073453423
R8:short,1.6487912087912089,1.65,211.78393855974457,39.23533013805155,49.205129747013615,273.8137519608048,4.3676030644313535,49.26760755755538,274.5139044726194,-4.7149173045344055,49.59610592676711,269.96926450384797,-24.466656529435483,53.4334486970144,217.68457313803324,-76.9038165458263,56.9484385687346,1.6485754985754983,0.28184371184371193,0.2606552706552705,-0.02064713064713042,-0.011322751322751512,0.003,0.05308830280830282,39015755.59435766,17861608.796544697
R8:parametric:-0.5,1.6491941391941394,1.6495970695970696,210.79584766554888,39.30069776857879,48.99642995764317,273.927964896212,4.400777773184144,49.36319664741677,274.7208457179249,-4.6832982243029795,50.867390073416345,270.4698539171971,-24.33720290717543,53.62082918995163,218.1294483843216,-77.08008035706007,57.61074746077847,1.6494301994301992,0.28258445258445275,0.2612739112739114,-0.02051689051689054,-0.011277981277981186,0.003,0.05305304843304843,37796510.151539996,17905286.120576184
R8:parametric:-0.2,1.6487912087912089,1.6512087912087912,210.34029645660718,39.32663655320933,44.30854974276839,272.98386878067686,4.384043673918942,44.845305029217954,273.4269461596257,-4.766176970869879,47.15769725921003,269.1974072575392,-24.59421994848066,51.275304985400034,217.82266471471507,-77.01887911124577,55.62066898925716,1.648917378917379,0.2815873015873016,0.26002035002034996,-0.020227920227920415,-0.011013431013430997,0.003,0.05289438746438748,42701896.47353141,18803031.676117174
R8:parametric:-0.1,1.6504029304029304,1.6504029304029304,211.99841180747538,39.170850827974796,50.250692333732744,274.23910033099907,4.393035638853048,49.98820633378597,274.91743438014925,-4.739090540779783,51.63776999049217,270.8038856641325,-24.557841246684006,53.93215811483763,218.14730008845106,-77.08677602091498,57.876471514740636,1.6505128205128206,0.2826210826210829,0.26152218152218165,-0.0207000407000405,-0.011159951159951165,0.003,0.053181050061050034,37987707.68790649,17988074.91775569
R8:parametric:-0.05,1.647985347985348,1.652820512820513,210.39303006880255,39.39894742915378,47.79285024922738,273.27678223073326,4.401882776272579,48.69528185526158,274.12026431729737,-4.727972064803862,49.01958437548399,269.5880355404279,-24.483774064891573,52.18669684803665,218.723138689611,-76.59012360945263,55.851558554102745,1.6477248677248677,0.2816727716727716,0.2603947903947904,-0.020667480667480365,-0.011143671143671208,0.003,0.05294117623117624,39515693.794312686,18377000.79430873
R8:parametric:+0.05,1.6467765567765569,1.6487912087912089,211.9022458229494,39.06373589242672,49.101675387101906,274.1022702242231,4.364224098692603,50.466304635656016,274.70408065037395,-4.727418459252233,50.660950295063515,270.5331617984947,-24.592064091048428,53.10510576959963,217.23582372830157,-76.91530006430227,56.058809586089716,1.6472079772079773,0.2818925518925519,0.261054131054131,-0.020427350427350333,-0.0111843711843711,0.003,0.053089690679690715,37713590.53824143,18098735.56568925
R8:parametric:+0.1,1.6487912087912089,1.6495970695970696,211.59701148930887,39.278919114985655,49.933916041333745,274.3307761137659,4.395927085934415,50.070801012768804,274.9334647198548,-4.7052076969017484,50.76503052429656,270.6872470104265,-24.388888658487303,53.39226876505125,218.58137811303874,-76.62185408298006,57.156481438311445,1.6486813186813187,0.2822425722425721,0.26157102157102174,-0.020618640618640827,-0.011412291412291276,0.003,0.05313760683760678,39874815.82993519,18042985.882489555
R8:parametric:+0.2,1.6471794871794871,1.6483882783882784,211.825040092847,39.252114894360844,49.808134450243465,273.9919756706564,4.368099343744564,51.408745691496485,274.51453736049615,-4.738407757112572,53.151160147161875,269.91055521395907,-24.414454459385137,54.298915558417505,218.37007795165238,-76.88226662420507,58.05410598209162,1.6468416768416765,0.2821978021978021,0.26133496133496104,-0.020272690272690297,-0.011310541310541433,0.003,0.05306844525844526,37518879.0358084,17730468.632060945
R8:parametric:+0.5,1.6504029304029304,1.6495970695970696,211.26343371094754,39.33698652912516,48.12100743460233,273.77763109507714,4.383276458566563,48.13189161284633,274.61864954074605,-4.726577518918895,49.30501317543843,270.55873055089234,-24.419163033347964,52.639436811722845,218.07142261715256,-76.59787817518117,56.318107096413925,1.6506227106227107,0.282185592185592,0.2608262108262107,-0.02056573056573041,-0.011229141229141093,0.003,0.053097810337810386,38775458.44149324,18483669.899182484
C4:open,1.6451648351648354,1.6512087912087912,211.71979834874827,39.47303478303304,48.463675558093904,274.26398774972574,4.382693466930216,49.77293051114594,275.0463339303746,-4.718278675034519,50.77433459330294,270.7624260839585,-24.34684543227354,53.728702141239246,220.20069487333643,-76.36782184121819,58.401590991932196,1.645046805046805,0.2828164428164428,0.26147741147741155,-0.022210012210012064,-0.011807081807081676,0.003,0.05315962962962964,39197684.28845594,17949938.906435803
C4:short,1.647985347985348,1.6516117216117214,212.45003693661533,39.17205583145171,49.73934238932717,274.69521344820544,4.398683215884336,50.48103992993711,275.2768155585286,-4.7027609975585705,51.296357162640405,271.10527994453776,-24.408478643984544,52.88641536129012,219.08353233253982,-76.81437933258036,55.991796453196095,1.6479161579161579,0.2829059829059831,0.2616280016280016,-0.02059829059829088,-0.011351241351241104,0.003,0.053235868945868944,37829632.32306571,17979144.09114838
C4:parametric:-0.5,1.65,1.6495970695970696,211.8210252350257,39.18155094001987,48.39243208631916,274.03661346098136,4.38027202764086,49.51207538909572,274.8841572008338,-4.678156928583643,50.440302024100816,270.77073687758593,-24.205094821719925,54.14644864663419,219.93824047320516,-76.43298502834381,57.7443960756042,1.65019129019129,0.2831623931623932,0.26129019129019104,-0.020691900691900855,-0.011277981277981186,0.003,0.05308123321123319,38145600.43467769,16633896.062766347
C4:parametric:-0.2,1.650805860805861,1.6483882783882784,211.44326044822355,39.26077668284268,47.73770899042547,273.8586404056202,4.369342820981041,49.51612963344524,274.4035899395478,-4.763445773480185,49.637101452041556,270.2072267999066,-24.480893904025606,53.12271469429936,217.5719996818696,-76.81725121829072,56.380991638595965,1.6510419210419214,0.28258445258445275,0.2610215710215713,-0.020297110297110343,-0.011147741147741086,0.003,0.0530642205942206,40509347.252618015,19099695.934398927
C4:parametric:-0.1,1.6475824175824174,1.65,212.28607506894258,39.22374992685499,48.806326691034016,274.13289619608815,4.38628429526042,49.082391652556254,274.7037405154307,-4.757744749921022,49.35561099189926,270.5404265734808,-24.593118152080542,53.222896656959676,217.63013876020568,-76.8448890718513,57.51221739136933,1.6476312576312577,0.2823809523809523,0.26087098087098093,-0.020130240130239785,-0.011339031339031691,0.003,0.053121322751322794,37571789.547812246,17717341.47576831
C4:parametric:-0.05,1.6536263736263737,1.6495970695970696,212.01982107437786,39.23744791793913,48.618741234513706,274.0754691110619,4.395511390012378,49.312613087484564,274.6383905398509,-4.698096243740915,49.437910008549125,270.1171933301646,-24.23761950159924,52.97608487787474,220.01788117892306,-76.47520360147865,57.27785969465393,1.6536426536426538,0.28199837199837186,0.26129833129833147,-0.02065120065120063,-0.011159951159951165,0.003,0.053096060236060186,40344871.50336248,17467945.673766293
C4:parametric:+0.05,1.6467765567765569,1.6471794871794871,211.08077867187342,39.16237304758786,48.70963988592504,273.704462165206,4.334397109765486,49.343302999248706,274.42038183854424,-4.775817585469472,49.49371888667241,269.97376471837947,-24.617974721012388,51.92595424993854,217.01956720653322,-76.97721956660632,55.20377983244151,1.6469312169312174,0.2818477818477819,0.2609157509157509,-0.019898249898249842,-0.011066341066340746,0.003,0.053043052503052454,41210058.09960112,19664029.47601399
C4:parametric:+0.1,1.6491941391941394,1.6504029304029304,211.86499411745552,39.23349864996846,50.00659541589354,273.9591352551734,4.419524619548172,50.9967040784849,274.8219463313266,-4.675716821904572,52.71661444746959,270.69379352328554,-24.292358942081492,55.30636543216389,219.24848894879818,-76.3933576870912,59.27133806454724,1.6491534391534393,0.2826495726495726,0.26078144078144083,-0.02106227106227121,-0.011233211233210971,0.003,0.05310216931216934,37882690.37032798,16882345.74631525
C4:parametric:+0.2,1.6516117216117214,1.6495970695970696,211.1245363221147,39.295942579113266,49.23215643591556,273.81389051802387,4.390949804243942,49.41470050489895,274.4721850251394,-4.727189310801464,49.6602942248588,269.80413164957156,-24.446827819766515,53.62975951936336,217.6441318747684,-76.67879687543945,57.407533866531864,1.6513390313390315,0.2815832315832315,0.2609808709808713,-0.020288970288970143,-0.011017501017500986,0.003,0.053063044363044334,37050793.00896567,17725962.432170294
C4:parametric:+0.5,1.652014652014652,1.65,211.07249851166412,39.24772966926716,48.574114310322116,273.1661718639922,4.401092780104931,49.428868341547364,274.06865600514243,-4.682035242539828,50.83897028657938,269.9104238686962,-24.34152974494831,53.31508715053006,219.05209670846318,-76.81274955922754,57.09967868602682,1.651912901912902,0.2820716320716321,0.26021571021571055,-0.021017501017500995,-0.01152625152625164,0.003,0.0529442205942206,38940423.64357552,17893092.660892785
C4:cap_degradation:+0.2,1.6487912087912089,1.6495970695970696,211.70651324925754,39.11968902110064,49.55449641476389,274.35954732859057,4.380687085545366,49.75265525091934,275.1181029753965,-4.711912511344456,50.235677338411236,270.4385475862913,-24.371057599021466,52.9602507213112,219.16363547073175,-76.61857751495097,57.42621543108097,1.648929588929589,0.28258445258445253,0.26134717134717156,-0.0207122507122508,-0.01132682132682139,0.003,0.05317957671957671,39011628.74892816,18013319.558883995
C4:cap_degradation:+0.5,1.6524175824175824,1.6487912087912089,212.43782513098188,39.13754718086932,48.613670931716,274.4723145390768,4.381630304297985,49.3203429563884,275.11745861238165,-4.730610136497971,49.67571319635354,270.55548645540694,-24.422460861346096,53.29429936515642,218.19605566094168,-76.62889600055054,56.90990586180137,1.6525844525844526,0.28295889295889276,0.2616239316239316,-0.020752950752950694,-0.011200651200651168,0.003,0.05316925925925922,38962558.10931358,17509806.066632293
R9:open,1.6536263736263737,1.6491941391941394,211.97213588465675,39.27202738959656,51.35256438931862,273.979795645733,4.407969081465724,51.78260857318475,274.6861264703363,-4.693129821406439,55.201856903260094,270.0462804985475,-24.304923977423698,69.77147379259125,218.39912096766602,-76.73476613034074,87.49162181667316,1.6532234432234434,0.28227513227513223,0.26080179080179067,-0.020911680911681052,-0.011290191290191598,0.003,0.05308530728530728,35244202.57434809,16997135.126636345
R9:short,1.647985347985348,1.6495970695970696,210.70518526960038,39.20370442145848,46.71035855341677,273.7195020097894,4.374390891285899,47.5020668890664,274.37422571740274,-4.757218237936297,49.23404826827935,270.015804799532,-24.44237159502699,52.280252868951095,218.19426598069396,-76.88917975360583,56.885718101122485,1.648026048026048,0.2820675620675621,0.2608343508343509,-0.020284900284900265,-0.011485551485551304,0.003,0.05304496540496538,39332843.221516,18594803.667259112
R9:parametric:-0.5,1.647985347985348,1.647985347985348,212.37548050061184,39.10872586906801,49.84200090284469,274.18333190265486,4.3746384146686115,50.15568596386301,274.83056617464644,-4.737180563014146,50.560815503535025,270.57905504074927,-24.434364088801914,54.73917260403032,217.90895390714763,-76.79645943120921,59.72814113761876,1.6480748880748881,0.28245828245828253,0.26142857142857157,-0.020866910866910726,-0.011318681318681412,0.003,0.05313966218966222,38162947.44520001,17127014.85500825
R9:parametric:-0.2,1.652820512820513,1.6512087912087912,211.64833766744817,39.13784679248347,49.103546006755906,273.32435064147734,4.365074750370635,49.71820088349304,274.1343752638554,-4.7249008559049726,50.13851005611359,269.96196035991545,-24.409740600741905,51.99063860401381,218.56904166817253,-76.7960673021239,56.27450161413872,1.6527798127798126,0.281807081807082,0.26071632071632067,-0.020032560032560154,-0.011322751322751623,0.003,0.052999959299959334,40070148.04649757,18524129.232184313
R9:parametric:-0.1,1.6471794871794871,1.6467765567765569,211.01479579091733,39.26273266454554,47.21271605569342,273.67741295777864,4.368006313963846,48.046900808275325,274.2282033135974,-4.715101950110823,49.58540589868933,269.7426863308699,-24.343403214452813,52.756132317758286,218.1942321467002,-76.67441502189911,57.0556095798658,1.6474806674806675,0.2818559218559217,0.2609320309320312,-0.02052503052503063,-0.01113146113146124,0.003,0.05302262922262926,38951951.11315541,17897318.105726488
R9:parametric:-0.05,1.6495970695970696,1.6471794871794871,211.7283710336147,39.171199365866485,49.606044769921496,273.9360273306353,4.360194009588526,49.7046446492364,274.51510978240447,-4.716956818699604,50.519175216477734,270.2063890267538,-24.42074065371239,53.04250084824471,217.31629511130996,-77.04186535562835,56.7283397211405,1.6497069597069596,0.2815466015466014,0.2610582010582011,-0.020708180708180812,-0.01124135124135095,0.003,0.05308191697191697,37506715.15026997,18003919.87956993
R9:parametric:+0.05,1.6495970695970696,1.6536263736263737,211.6156911463196,39.23312169911172,49.281228414728346,274.28423250955126,4.358847367335827,50.367890640209794,274.7713576717123,-4.75659961363752,51.06312291707846,269.80249939194573,-24.50168012161049,54.73192013749799,217.99988295307395,-76.98294426559924,57.805902085384574,1.64978428978429,0.2818559218559218,0.2612820512820514,-0.020284900284900487,-0.011290191290191487,0.003,0.053138156288156324,39172220.932085305,18288066.507346176
R9:parametric:+0.1,1.650805860805861,1.6504029304029304,211.19914438476258,39.40420697903761,47.96056101732759,273.9644803964876,4.414700262481242,49.072791491913904,274.72570764844954,-4.706114722183758,50.03678934252247,270.3955292427428,-24.310671416736113,53.676309855958785,219.47551167283154,-76.5828343278242,58.856483136097246,1.6504436304436303,0.2821286121286122,0.26081400081400086,-0.020622710622710594,-0.011225071225071104,0.003,0.053077814407814394,37947205.380055815,17272848.55450797
R9:parametric:+0.2,1.6504029304029304,1.6475824175824174,211.6073430810092,39.17556695787,49.391069719441624,273.7724215983619,4.399307932945707,50.01264076665194,274.4195764261645,-4.709497677306183,50.23857479344943,269.9356312532741,-24.305112461945143,52.69625882252788,218.96832000405067,-76.71151897487539,57.01198556796388,1.65020757020757,0.2815059015059017,0.2607448107448107,-0.02051689051689054,-0.01132682132682128,0.003,0.05304772079772081,39375135.17900574,17947023.360423923
R9:parametric:+0.5,1.652820512820513,1.6516117216117214,211.14913444026575,39.21082139561745,47.06107336716913,273.08662576424604,4.357992005532216,47.21483619085628,273.7241583237431,-4.726443336798577,48.24209234719677,269.0554659028068,-24.481133148986142,51.93342570605194,216.50452880865822,-76.58274625557482,55.92105696214135,1.6527309727309727,0.2812372812372811,0.25983312983313,-0.020024420024419842,-0.011082621082621036,0.003,0.0529196336996337,39925479.14404622,18531246.206812657
C5:open,1.65,1.6467765567765569,1.0452903273055085,-0.05479701690730866,48.95321767418754,1.0488818046441444,-0.773389813474954,49.22525938019591,1.053075249741499,-5.183086671329332,49.8229502725067,1.0388984931626613,-24.558194184025382,52.52817159799728,0.8273918683251222,-77.05286872599822,56.453631205513894,1.6498738298738296,0.0037199837199837216,0.000923890923890669,-0.0031094831094831132,-9.768009768018615e-05,0.0405,0.00020192511192509223,166818.76049130806,74484.87201385999
C5:short,1.7684615384615383,1.6512087912087912,271.50714568896694,-0.028086558988123553,46.90026974370966,273.1808905788441,-0.2507128794739505,48.42481141079284,272.7962193458586,-4.935848964728009,48.74048216810367,268.0225796820584,-24.548793057146167,52.33736866458683,214.5689646379505,-76.89917611159972,54.65373633633528,1.768783068783069,0.27800976800976807,0.2701628001628003,-0.005083435083434895,-0.00010582010582016466,0.003,0.05364706145706143,34669211.67467722,16643875.015947603
C5:parametric:-0.5,1.6544322344322344,1.6512087912087912,141.7621436480207,58.568527290609325,49.23640567811177,271.3134785284717,9.027188188331241,49.64841547114329,274.70659686807244,-4.473126069513562,50.05679196324113,270.59336548095956,-24.220748427218318,53.1166313686181,219.63327352286007,-76.62772916682198,57.45175818211304,1.6547171347171346,0.2827309727309729,0.24836385836385821,-0.033658933658933576,-0.01845746845746854,0.003,0.05178283272283268,37910529.07056747,17006371.776221022
C5:parametric:-0.2,1.6475824175824174,1.6495970695970696,190.3498114386538,45.631229497742176,48.77542802806748,273.0484208175285,5.517892365609841,49.41535207234251,274.2992338597117,-4.683561187073199,49.466580233186086,269.56182504654385,-24.58983485914115,52.104199958769144,217.60903892501688,-76.91899367569309,55.102037719672055,1.6477207977207975,0.28182743182743164,0.2571876271876272,-0.0235124135124134,-0.01340252340252357,0.003,0.05265622710622711,39562083.210834235,18690339.96408945
C5:parametric:-0.1,1.647985347985348,1.6495970695970696,201.8788173421841,42.19068634552655,47.62751614593545,273.27174757752175,4.86585669053556,47.84220850271102,274.10553204311293,-4.7501693987092635,48.70697945680247,269.35521368078935,-24.584194086026194,52.04315952853561,216.1729209791028,-76.76878980746284,56.23187796138923,1.648021978021978,0.28086691086691107,0.2592104192104192,-0.021473341473341234,-0.012096052096052023,0.003,0.05282994301994304,40894060.65615199,19061274.551517762
C5:parametric:-0.05,1.6544322344322344,1.6504029304029304,207.4414559930416,40.63929206904777,48.76205677260203,274.06488382408156,4.6090249045235545,49.14595760548579,274.86860799883107,-4.67910439158025,49.75594272781039,270.64768515951016,-24.339644852666375,52.95249388329118,220.03613535710974,-76.58000945080335,57.555771570619626,1.6544729344729343,0.28269434269434257,0.2604070004070006,-0.021721611721611578,-0.011611721611721748,0.003,0.053050765160765144,37469523.344522975,18403769.88708057
C5:parametric:+0.05,1.6463736263736264,1.6504029304029304,215.69035641178004,37.72698853705678,48.82363879155709,273.35352482186244,4.132048562394208,49.160993410751814,273.88500618707417,-4.787585151908557,49.37353887492131,269.6014002849596,-24.570619803352287,53.40782611018634,216.73821099018807,-77.06297975854099,57.65027287582841,1.6466178266178266,0.2814204314204314,0.26089133089133065,-0.019466829466829316,-0.010687830687830746,0.003,0.05299478225478227,40253850.938812494,18048967.585723467
C5:parametric:+0.1,1.6536263736263737,1.6512087912087912,219.44171522991826,36.39518820918978,51.12375519491881,273.5663495982401,3.9337362495520893,50.94246824428822,274.0002051814043,-4.738105321369637,51.3327832663482,270.0305875526121,-24.39155866782027,53.939984966978315,217.64275068523204,-76.69800351575027,56.98164446059436,1.6537077737077737,0.28231176231176225,0.26196581196581203,-0.019100529100529173,-0.010248270248270464,0.003,0.053079686609686615,38664887.80560269,18047773.345785502
C5:parametric:+0.2,1.65,1.6504029304029304,226.26782904636372,34.35466549762797,47.594295147061715,274.74346308677343,3.6032724545872528,48.80750190625339,275.22199869201313,-4.72792368115017,48.9591706212868,270.55748459223673,-24.278210332258006,52.31049318442337,219.11044889645694,-76.29254941529452,56.189841067494854,1.65002442002442,0.2826373626373623,0.2640252340252338,-0.01824582824582832,-0.009776149776149934,0.003,0.053416837606837596,37612600.153595,18219206.276703205
C5:parametric:+0.5,1.6491941391941394,1.6483882783882784,241.15988820600853,28.598852609669486,50.38702450432855,274.9937884781673,2.862565429182686,50.530045398009676,275.1662000109751,-4.786973993423547,50.72449907979718,270.6627189022049,-24.31741296942519,53.64340467494776,219.9578341752832,-76.67705870614063,57.74226210253093,1.6492755392755392,0.2828734228734229,0.26634920634920634,-0.016369556369556282,-0.007973137973137923,0.003,0.05363423687423689,37390787.52286637,17169755.045441337
C5:cap_degradation:+0.2,1.6504029304029304,1.6504029304029304,190.5563691415411,45.66683677363171,48.18965586261436,272.5158934297808,5.563997527573001,48.29663832457928,273.7774971389483,-4.6786060086722525,49.06108319823685,269.6870234427937,-24.39807189338269,53.021650114066695,218.6169682000522,-76.71259654449814,57.383443960521326,1.6506756206756206,0.28161986161986163,0.2568009768009768,-0.023768823768823943,-0.013540903540903648,0.003,0.05257213675213675,40556472.98463681,18589820.49076801
C5:cap_degradation:+0.5,1.6600732600732602,1.650805860805861,142.11475870253932,58.460080102480944,46.86177994483943,271.01697126969236,8.972380660196396,47.61846114029893,274.19759700946463,-4.474041936292865,47.7503422950074,270.39456118466666,-24.246117528284156,52.7492188375069,219.02751030709538,-76.3919785727638,57.996176326947,1.6599511599511603,0.28240537240537233,0.2479772079772079,-0.03369149369149371,-0.018420838420838526,0.003,0.051736015466015486,39932682.75261476,17141150.78742135
R10:open,1.6487912087912089,1.6495970695970696,274.8479440940785,0.1559840788829981,50.269033415470155,275.672635762735,-0.22944443964341255,51.08425528892297,275.452242423165,-4.928305122636418,51.86947285188247,271.2644864234926,-24.457866200856408,54.58032828589053,219.54947846367904,-76.80592892676982,58.79203078331447,1.6486487586487588,0.2833170533170536,0.2755718355718355,-0.007012617012617239,-0.00010175010175039745,0.003,0.05458728937728938,36732044.059911564,16859970.87113236
R10:short,1.6495970695970696,1.6495970695970696,0.026765269038783963,90.63136194374971,40.07533813465355,0.03234658424640482,87.00917552450073,41.80496054560992,0.028078272547668676,73.65883892707372,36.322271970815876,0.07428272289739779,64.84250952135176,46.269668355862294,0.19585785139702921,12.313330112665884,52.76620545873648,1.6495522995522993,0.0026699226699227196,-8.547008547021839e-05,-0.003105413105413013,0.00011396011396003214,0.0345,-1.998371998360171e-06,37245.10068934603,39294.012136753685
R10:parametric:-0.5,1.6467765567765569,1.647985347985348,142.77692838204547,58.45186772890744,50.37689913001873,271.3689815820235,8.953346818935218,51.045765160884784,274.5276600050305,-4.4836446898645645,51.15697576809046,270.24161540960057,-24.347272476315595,53.78098105649396,219.09255253821016,-76.45190132077938,58.25252341327038,1.6469190069190067,0.2825559625559628,0.2485999185999186,-0.033606023606023605,-0.018331298331298096,0.003,0.051790622710622694,38512723.174415134,17479872.059372075
R10:parametric:-0.2,1.6524175824175824,1.6512087912087912,190.73440988226338,45.651799688924115,48.47778170048736,273.3930436038751,5.546225886643543,49.192854461291404,274.5676120340079,-4.663216660201926,50.29820810817216,270.32429596915966,-24.30884459864822,52.471961890835374,218.7811381962585,-76.48080956268794,56.11613221487563,1.6525885225885226,0.2824216524216524,0.25814000814000815,-0.023483923483923363,-0.013288563288563426,0.003,0.05278417582417583,39373927.8795674,17849171.170344114
R10:parametric:-0.1,1.65,1.6487912087912089,202.23764767594255,42.1840317292024,49.24097283257912,273.1428236688014,4.900335312043836,49.37537947369057,274.15691757677644,-4.693684512126591,49.63105014046663,269.9321301746169,-24.36262735014261,53.01116148547429,218.52877172870558,-76.60579594123442,57.63517183271875,1.6498494098494099,0.2817297517297517,0.2593080993080995,-0.021750101750101725,-0.012226292226292346,0.003,0.05284002442002435,39391127.627375245,17845324.097410522
R10:parametric:-0.05,1.6495970695970696,1.6512087912087912,205.78389883678244,40.860919855713085,48.34875708360987,274.07933863258484,4.631594781901222,49.43365787966259,274.8463776812003,-4.70444960095553,50.70492421739465,270.097449175188,-24.43700852945789,51.764581426729,218.85095374507745,-76.42087136798037,55.834310283937015,1.649137159137159,0.2819047619047619,0.2602645502645504,-0.020862840862840848,-0.011619861619861505,0.003,0.05305886039886042,38624359.71075563,19538315.070441008
R10:parametric:+0.05,1.6439560439560439,1.6504029304029304,215.50912027103632,37.81856313024694,48.357893051717994,273.7915158879671,4.159481578534637,48.47312105209421,274.2918215999607,-4.799488610750794,48.559736492072844,269.23314355107175,-24.557129060581424,52.61316395547462,216.86078460077633,-77.03980753682004,56.52384101816165,1.643882783882784,0.2815425315425314,0.26135124135124144,-0.0192673992673994,-0.010606430606430961,0.003,0.053109947089947034,40871998.70268588,18913321.630556963
R10:parametric:+0.1,1.6463736263736264,1.647985347985348,219.50008353947058,36.520027504981016,48.63863109951424,273.99400681613474,3.954799584925799,48.90561675784056,274.5306619509536,-4.701628134530916,50.27498386621506,270.7044734744271,-24.322826055550046,53.25048532294059,218.90579539605056,-76.79383521667955,57.11450986511946,1.6460887260887263,0.2827309727309727,0.2623402523402524,-0.01956857956857927,-0.010423280423280779,0.003,0.053157981277981256,37089252.28662792,17679569.05207731
R10:parametric:+0.2,1.6491941391941394,1.6483882783882784,225.894762746775,34.235630951274544,48.133454796893346,274.38334852940443,3.61479344510704,48.5416751982092,274.7938446090276,-4.717441648057017,50.2127584505472,270.0408231663062,-24.24606255402158,53.084323878833175,218.9585502492742,-76.37797625180187,57.263305041139155,1.6493121693121695,0.28222222222222215,0.263231583231583,-0.01874236874236901,-0.009556369556369959,0.003,0.05333589336589337,38087146.57790226,17910084.02743654
R10:parametric:+0.5,1.647985347985348,1.652820512820513,240.8343349252554,28.530586476734435,51.88653326816333,275.229916530223,2.8635335176696444,51.89145608830998,275.414074912219,-4.734955776749493,52.552187302632824,270.62326421363605,-24.18845591051806,55.24765580264882,220.57460220852687,-76.38706789271265,58.8141784585521,1.647871387871388,0.2831379731379732,0.2662433862433863,-0.01719169719169711,-0.007993487993487869,0.003,0.053663536833536835,35325845.82792798,16497251.022750597
R11:open,1.6491941391941394,1.6471794871794871,3.060703766375509,39.183274993735424,49.78667661614677,3.952926621747946,4.313121060181015,50.24570804706251,3.9670181838787486,-4.827305329747308,50.47791625918743,3.9206999459433476,-24.2816812825091,54.25740829076592,3.16087433565612,-76.08531755079463,57.163487933689666,1.6491656491656492,0.006483516483516305,0.0035286935286934495,-0.0032885632885634175,-0.00018722018722017175,0.059,0.0007609564509564626,552318.9474779731,269553.48868390085
R11:short,0.8920879120879122,1.6463736263736264,0.02944400563496877,38.13308338099246,38.81956249541411,0.03169002124690981,8.469701544569958,38.57650721959297,0.030759706801887804,-6.604633739621599,38.23751861827175,0.03296703852380231,-30.618626864627146,40.057528974653636,0.03434967388605514,-67.68944233366108,39.89960156100968,0.8924135124135126,2.3600407000407,2.3572201872201872,-0.0033455433455434544,-0.00017094017094043679,0.003,0.4668373341473342,27640.421522912162,33362.43509768631
R11:parametric:-0.5,1.6552380952380952,1.65,420.0945382766271,39.158260201589954,49.356882931545805,543.4269507570641,4.382975704033743,49.82936393358745,544.9164402026863,-4.749595651438945,50.38317995144425,535.2145353031697,-24.563889741131014,52.89619900985432,433.61708393356423,-77.18655518847395,56.51335960251117,1.6550264550264548,0.5595238095238098,0.5185429385429388,-0.04051689051689056,-0.022560032560033028,0.003,0.1053776882376882,75626692.58384217,35401700.351586446
R11:parametric:-0.2,1.652014652014652,1.6512087912087912,263.79045462207955,39.185466040990725,49.79905853102693,341.7533305330719,4.357849544915406,51.483118805897575,342.50439096099507,-4.765503401123559,51.21688847025952,336.2490957511635,-24.37231414562592,52.653603977665,272.03341387614853,-76.74788757446264,57.567465391121715,1.6524664224664225,0.35132275132275126,0.3256980056980058,-0.02518925518925519,-0.014021164021163934,0.003,0.06623837606837604,48106930.71489567,22009893.273527957
R11:parametric:-0.1,1.650805860805861,1.6475824175824174,234.80121388571757,39.28327427591499,50.206153108018356,304.06591551454244,4.379782502883344,50.418938259484676,304.8859319564107,-4.715260513880413,50.426056353503554,300.14199631411793,-24.485229113472595,53.964785063524225,243.07400600663973,-76.70881855401117,57.11504930978215,1.6507855107855107,0.3134839234839234,0.2896174196174198,-0.022698412698412662,-0.0125925925925926,0.003,0.058903219373219406,42619633.75864816,19781434.66852687
R11:parametric:-0.05,1.6491941391941394,1.65,222.79870209436433,39.17720261451508,50.05959625134213,288.4385147761599,4.352676226747308,50.656766098580135,289.2522123637191,-4.749190275397701,51.57749352498999,284.1651817173197,-24.52591929038961,53.221243333404075,229.20863497588715,-76.79195241956748,56.31676672881117,1.6490435490435493,0.29692714692714695,0.27466829466829457,-0.021400081400081206,-0.011900691900691984,0.003,0.05589708587708586,39743938.54366867,18799390.253293846
R11:parametric:+0.05,1.6471794871794871,1.6475824175824174,202.0083034006215,39.30637076863904,50.981178263624564,261.48024848822286,4.397703539731202,51.13947534235041,262.1987256990893,-4.657196663331163,51.93795039911525,258.00193113258354,-24.134893667081606,54.620511414578694,210.86940863406014,-76.37524556504216,57.58233560373465,1.647037037037037,0.2694953194953197,0.24862840862840863,-0.019947089947090046,-0.01066341066341081,0.003,0.05068206349206351,35705383.172967345,16473503.891748426
R11:parametric:+0.1,1.650805860805861,1.6512087912087912,191.73325875428833,39.37685108415397,47.2238952985901,248.02439765217412,4.397135855197034,48.247650600063174,248.9242603577751,-4.714266812996328,48.97034564821797,245.5547189098203,-24.48409950982058,52.97992776401044,198.31221109465022,-76.48999297605812,57.174783009023,1.6508343508343508,0.2564183964183966,0.23633699633699623,-0.01859177859177852,-0.010227920227920073,0.003,0.048079719169719176,38169853.387738466,16174761.748140011
R11:parametric:+0.2,1.6483882783882784,1.647985347985348,176.6194839172852,39.172902043170154,49.525280054957406,228.42939590012682,4.360202819308779,49.789917348927396,229.14251090743755,-4.71874248113088,50.10431247145915,225.4273456728135,-24.35050744490198,52.66776595740667,182.96908990132806,-76.28814261676405,55.12065555187651,1.6483475783475785,0.23518111518111495,0.2178591778591782,-0.017089947089947377,-0.009214489214489419,0.003,0.04423748066748071,33665044.80433868,15200882.684926115
R11:parametric:+0.5,1.6495970695970696,1.6487912087912089,142.5200825866327,39.11124239717583,47.102774218161024,184.22672536168199,4.367840267465526,47.51850597976556,184.57156577446366,-4.666159828344606,48.498492975011374,181.48708777131284,-24.27148932084755,52.602130739233594,147.38934095437338,-76.52818542209957,57.48342846116741,1.6499104599104601,0.18981684981684965,0.17526251526251502,-0.013947903947903906,-0.007614977614977758,0.003,0.03571640211640214,25561604.990097348,11330702.762336116
R12:open,3.249230769230769,1.6504029304029304,0.030959059751670376,37.760044955438715,39.883966702094796,0.031498472158950304,4.609126312015299,39.909992639833334,0.02743596111799882,-3.284299022499458,40.00023508527415,0.0321854572762687,-1.8483028440026423,39.97264674399424,0.028872632011876117,-28.54472083366489,40.14907141856932,3.249487179487179,0.0034839234839232347,0.0017582417582415744,-0.0032478632478635493,-0.00010175010175010601,0.0055,4.1518111518102916e-05,27467.448339129463,32586.46078052758
R12:short,1.6504029304029304,1.6512087912087912,3.073422689082827,39.22940837310908,50.654091180561686,3.9717601380028915,4.479299776679801,50.764874031308054,3.9967858432425594,-4.657067168565198,52.27023995004511,3.9150014572618836,-24.224472747791424,53.66123425895999,3.1887273430195324,-76.1053767719652,57.71418772100866,1.6501628001628004,0.006512006512006785,0.003679283679283718,-0.003345543345543156,-0.0002401302401303651,0.041,0.0007646357346357177,543991.2172228363,248169.71912220912
R12:parametric:-0.5,1.6516117216117214,1.647985347985348,107.36058822049034,39.13598418274221,49.98277001892132,138.97435232325412,4.372012092761009,50.03335232813127,139.23818640144253,-4.6856308351905875,51.404615188392576,137.1996439036464,-24.288590188091554,54.714794491577074,111.04304693381636,-76.25003972620635,57.61511190481164,1.651652421652422,0.1432967032967032,0.13227920227920242,-0.010622710622710585,-0.005653235653235833,0.003,0.0269409605209605,19202526.634542286,8809550.113811966
R12:parametric:-0.2,1.6495970695970696,1.6504029304029304,170.03100944004922,39.36407103470483,49.919348647444735,220.01061852226792,4.381422160730329,50.435670784473054,220.49598302287572,-4.75044745080195,50.61465907785689,216.62558836997943,-24.442471195072955,53.79187811053835,174.74306245431313,-76.65549778422414,58.29255459447526,1.649255189255189,0.2262718762718764,0.2093813593813595,-0.01625152625152615,-0.009104599104599265,0.003,0.042603174603174615,31488567.42218313,14209667.132806059
R12:parametric:-0.1,1.6512087912087912,1.6487912087912089,191.2258416030259,39.394096598459825,49.570006997696105,247.08012786220237,4.41030053441205,50.16400287821645,247.77835583806706,-4.699119156508903,50.450004354273936,244.1992958626824,-24.439926166209283,53.709596005284,197.1142096883731,-76.7264338981226,56.65697256453737,1.6515059015059013,0.25484330484330486,0.23539275539275528,-0.018937728937729048,-0.010126170126170342,0.003,0.04788811965811966,33208889.462831955,15927946.765522793
R12:parametric:-0.05,1.65,1.6491941391941394,201.01211026321135,39.31957063752676,49.88012529950619,260.49412159837334,4.390615265490733,50.14594515465933,261.231416210311,-4.7099686703716,50.104440741519916,256.97718630410134,-24.363707686332532,52.90934585211832,207.98529865248912,-76.9217707635219,56.23819443746592,1.65004477004477,0.26897028897028874,0.24842083842083829,-0.019592999592999982,-0.010720390720390771,0.003,0.050483801383801374,35931094.254674375,16960290.38268578
R12:parametric:+0.05,1.6467765567765569,1.6495970695970696,222.3007244975846,39.19821749537948,49.37690698366017,287.80431202359983,4.386178047727809,49.94223586330466,288.35241493735066,-4.7366065149040635,50.37059935562192,283.7244849822272,-24.351093222410203,52.93826996465914,228.45259984882077,-76.52581968090797,57.00648733446732,1.6466341066341066,0.29582010582010576,0.27379731379731376,-0.02120879120879149,-0.011839641839641701,0.003,0.05573942205942203,42060007.65982212,18556291.665160675
R12:parametric:+0.1,1.6487912087912089,1.6463736263736264,232.51500575766227,39.21575795126167,49.760124926915005,300.8099314403869,4.383866128202591,49.9225185402235,301.73117185562825,-4.765385805828645,50.246861285014674,296.6094066081019,-24.439644208538837,53.30570220536814,239.00884512014233,-76.85708842822753,57.357177838568845,1.6486528286528288,0.3099918599918603,0.28679283679283685,-0.02216524216524185,-0.012482702482702668,0.003,0.05832191697191695,41836080.0488604,18486265.73279742
R12:parametric:+0.2,1.6504029304029304,1.647985347985348,253.59924003245487,39.488296622351,48.740468527722385,328.38445463171473,4.416340857389663,49.901458886110134,329.28833264820855,-4.685963264251342,50.49000798546679,324.1131648813596,-24.25774286008905,53.178208483256796,261.77675112186364,-76.45871873575177,57.59978041713301,1.6505616605616602,0.33848188848188854,0.31301994301994285,-0.025067155067155067,-0.013646723646723702,0.003,0.06365212047212045,44469627.86570877,21124733.81219042
R12:parametric:+0.5,1.6487912087912089,1.650805860805861,315.60032510734334,39.24695610359774,49.177443227400495,408.6784989859151,4.3854246712540785,49.543359609318486,409.8867227160517,-4.725525990848745,50.686108730617164,402.63449224757755,-24.378885472864578,53.22548741639352,325.3754798007143,-76.78017107085242,57.11776471586124,1.648774928774929,0.42069597069597053,0.3896174196174198,-0.030248270248270148,-0.016931216931216908,0.003,0.07917137973137975,58642272.04785515,27187645.757186975
R13:open,1.6451648351648354,1.6495970695970696,10.785102982173093,-47.68234849425924,48.86479014424651,1.390864254201634,-85.24440895885675,49.129661958677616,0.05917347785315987,-95.87027878161076,43.04901505492822,0.03243060462855095,-124.81474724653711,40.4405766476401,0.03486727887083796,-145.1982626300229,40.95070921703251,1.6452096052096052,0.0031461131461131275,0.0008302808302809161,-0.0023646723646719714,0.0006064306064306191,0.093,8.227106227103642e-05,43150.1560593879,26371.17487910905
R13:short,1.6512087912087912,1.6504029304029304,212.22155703874188,39.096199865907884,50.546529541777986,274.00003479370616,4.462908463550351,50.75815546180088,274.27946242058766,-2.4794896276639444,51.96211764039699,266.5060736033967,-12.529945929304912,53.617593908739266,230.72092619364992,-32.945602403937215,56.69061493885849,1.6513919413919416,0.27572242572242567,0.2612006512006513,-0.01598290598290608,-0.011115181115181172,0.002,0.05322796092796091,39345650.298728004,18109351.78216757
R13:parametric:-0.5,1.652820512820513,1.652820512820513,211.4227541960305,39.27143556708326,48.351296039845565,273.73023882942846,4.442627439364162,49.635810331216184,274.26392801421406,-3.581707331775467,50.93549136698216,269.89884285612845,-18.369394815829796,52.788144804525366,241.7536878690991,-55.45237158499623,56.88190929292942,1.6526170126170125,0.27766788766788786,0.2607814407814406,-0.016516076516076228,-0.011257631257631129,0.002,0.05311735042735044,39375106.0405944,17774194.62548866
R13:parametric:-0.2,1.6512087912087912,1.652014652014652,211.34255877928712,39.11572591952276,49.10454155340276,273.90943139001376,4.405908997737681,49.487155133009566,274.602060597108,-4.245961900922257,50.57188140257493,270.1301578053942,-21.940837740878656,53.84281349912825,230.49547215066565,-68.58954877788318,57.048339407703125,1.6514000814000815,0.28024420024420016,0.2607529507529507,-0.01968253968254008,-0.011310541310541655,0.003,0.053115217745217755,41942123.81863259,18143505.32580601
R13:parametric:-0.1,1.6504029304029304,1.6483882783882784,211.40732373615907,39.17299316939187,47.30437161371776,274.11620357875677,4.356519530364194,48.087176896034805,274.8755374006478,-4.52344838117099,48.5372318094105,270.4375287348654,-23.383519428125254,52.52668330937682,223.53959162271622,-73.14603552041604,57.44154464402186,1.6504436304436303,0.2818966218966219,0.26117623117623145,-0.020191290191289957,-0.011200651200650946,0.003,0.05311853886853888,38009614.80929653,18508345.56182771
R13:parametric:-0.05,1.6487912087912089,1.6504029304029304,211.13635474414224,39.27024769934396,48.144406728852275,273.90521461753167,4.393324896387583,48.58461732791578,274.64383414249403,-4.626191798135581,49.91287044246148,270.36674639603837,-23.860375176893875,53.50386482818908,221.31712393298045,-74.73557682379122,57.551325464371565,1.6488929588929588,0.28211233211233233,0.26121693121693157,-0.020028490028490054,-0.011037851037850821,0.003,0.053060154660154714,39282849.76079363,17934470.89683334
R13:parametric:+0.05,1.6471794871794871,1.6491941391941394,212.03006787429246,39.37527398980062,49.427588979348215,274.1968241683895,4.380629334755753,50.14225636349486,274.8393270765515,-4.823531488229801,50.9667973890224,270.02529405116945,-25.005226042708394,53.645714922162185,216.34973631931848,-78.57252324689492,57.512783033993,1.6471347171347173,0.28236467236467255,0.26137159137159116,-0.02045991045991058,-0.011412291412291276,0.003,0.05311778184778182,37166334.34619253,17177875.013758577
R13:parametric:+0.1,1.6487912087912089,1.6495970695970696,210.44015026504815,39.212495858792664,47.83029497703903,273.1913458875702,4.372596840648332,49.28620654741465,274.01015272893693,-4.906148517011287,49.55168255916637,269.6611921866098,-25.428389955403283,53.2861984479436,212.45079787490545,-80.16082907191098,57.34617859255971,1.6489051689051688,0.2819006919006918,0.2605250305250304,-0.020537240537240486,-0.01120065120065128,0.003,0.05293945868945865,40981868.58480348,18794600.294155654
R13:parametric:+0.2,1.6443589743589744,1.6487912087912089,210.59391036628858,39.34960411101822,47.725483709294224,273.6888410218368,4.368707221714845,49.33567298353119,274.33393484603175,-5.175623692067184,50.17297712562495,269.52128137923324,-26.706856580234614,52.4295201044726,204.1429727284799,-83.7749847407036,55.877140899616755,1.6444363044363044,0.2816971916971913,0.260716320716321,-0.020435490435490533,-0.011200651200651057,0.003,0.0529965811965812,40038097.715438284,18135301.6251383
R13:parametric:+0.5,1.6447619047619049,1.6487912087912089,212.3308713244909,39.1750104157923,49.09853196986437,274.10480793184195,4.344793015624912,50.59369813380198,274.8229200437753,-5.841869870578277,51.46793392104192,267.73922608700104,-30.34300522853679,53.69553906442083,182.32248089120299,-92.33132065780069,57.909129815590155,1.6448921448921447,0.28192511192511194,0.26166056166056173,-0.0203052503052501,-0.011090761090761014,0.004,0.05304386650386647,36281425.602899075,16401796.133959793
R14:open,1.652014652014652,1.6483882783882784,10.788572863483193,-47.85463818943574,49.44915898554763,1.3823512871460542,-85.02126965432808,49.837043175977726,0.06659052961629863,-99.50797961705294,41.15055721178464,0.03249662224503013,-112.21731521976665,40.02262929081496,0.03483206316819956,-156.736596629727,42.285985236399526,1.6519291819291821,0.0031583231583230953,0.000956450956450916,-0.0024135124135125086,0.0005779405779406943,0.087,8.008140008137998e-05,43923.35449605771,33571.76567119274
R14:short,1.6524175824175824,1.6516117216117214,211.00302885583747,39.30858986146745,48.7984796322679,273.2713898237113,4.477138716237042,48.88528826423645,273.7687656284244,-2.491946162465304,49.095594396143426,266.38518063970105,-12.687942904867212,52.43920948380362,229.7300578676488,-33.255235993973216,56.26525957561512,1.6525763125763127,0.27503459503459504,0.2605779405779405,-0.015942205942205967,-0.010919820919821133,0.002,0.053096870166870216,38230965.21133514,18252510.623545885
R14:parametric:-0.5,1.647985347985348,1.6495970695970696,211.30955810073135,39.372794525488146,49.45962326512188,273.2974619033357,4.447248294846064,49.876791391611306,273.79910946908984,-3.5816640509655806,49.999318813678926,269.35370117954346,-18.355156183928237,53.027287653976586,240.50693159466567,-55.43034837221446,56.86346981593776,1.647928367928368,0.2770614570614568,0.2604070004070004,-0.01651607651607634,-0.011245421245421383,0.002,0.05305160765160763,40556945.783384055,18414274.227715105
R14:parametric:-0.2,1.6491941391941394,1.6504029304029304,212.01857550389622,39.263819383600946,49.9923488826867,273.9035955082653,4.413952510492871,50.082911644642074,274.51258387142184,-4.267640396559162,50.110717510027854,270.1742912079266,-22.030951697310606,53.00040150756014,230.80930907203015,-68.81138622529132,56.92883473215781,1.6492022792022794,0.28089947089947076,0.26142857142857134,-0.01971102971102956,-0.011269841269841097,0.003,0.05311803825803821,37733814.4585855,17970858.2575624
R14:parametric:-0.1,1.6491941391941394,1.652014652014652,211.54363297220934,39.30601814911154,48.61954990505678,273.81160552294705,4.404316827303828,49.14804849811405,274.2827281417379,-4.510770645246065,50.39438808508528,270.28284647752287,-23.191858922046627,54.688916186538435,224.83136823560193,-72.91178923234195,58.52923089139373,1.6492999592999593,0.28182336182336165,0.26085063085063087,-0.020549450549450343,-0.0111843711843711,0.003,0.0530911925111925,38297100.31134247,17983789.879736476
R14:parametric:-0.05,1.6512087912087912,1.6487912087912089,212.4681820953509,39.15295735677205,52.20482437132547,274.2661616784432,4.398517254857799,52.620145199366554,274.8274121880713,-4.54872391506279,53.870575345277366,271.00337239045234,-23.637916119934445,55.81879824726248,223.16063477861312,-74.54517102911714,59.2416591890577,1.651123321123321,0.2828571428571427,0.26151811151811144,-0.021037851037851274,-0.01125763125763135,0.003,0.05316597069597068,38127530.38934733,16964272.77372592
R14:parametric:+0.05,1.6512087912087912,1.652014652014652,212.16615108095988,39.25094023434591,49.468185439551256,274.3576251072071,4.376475953289567,49.46961664349577,275.09237643862474,-4.837742569491081,49.797741606151035,270.4000659847616,-25.092589478565944,52.500827702264864,215.0404454347049,-78.6967603747685,55.930937473269196,1.6512617012617015,0.2826332926332925,0.26169719169719163,-0.020553520553520443,-0.011147741147741197,0.003,0.053171851851851845,36984067.638884634,18355315.193293884
R14:parametric:+0.1,1.6483882783882784,1.6487912087912089,211.63555189332436,39.32325042405179,49.69917278279026,273.4638038902557,4.382703077999009,50.895508247401345,274.24500586917054,-4.967990560407774,51.102976451212754,269.8641177843542,-25.64578617541943,53.46330590392852,211.56261325475583,-80.49173109524529,56.64668634299528,1.6484167684167685,0.2820268620268622,0.2607814407814406,-0.02010582010582007,-0.011090761090760903,0.003,0.05299158323158326,39498715.94672935,18441392.216731876
R14:parametric:+0.2,1.6487912087912089,1.6512087912087912,211.36640795792,39.25520263098706,48.82314604625778,273.810108446608,4.36462466902911,49.030124350687366,274.54001178796545,-5.174335476692168,49.243618463737064,269.23027418598747,-26.82029693460442,52.789252272368564,204.09405551392575,-83.75259221850538,56.5411784776418,1.6489133089133086,0.28143671143671145,0.261090761090761,-0.020146520146519742,-0.011168091168091143,0.003,0.05301729751729753,40815563.14996008,17770914.31904257
R14:parametric:+0.5,1.6495970695970696,1.647985347985348,211.20443491084592,39.413963767931975,47.950732995083825,273.58218797914253,4.347546555123124,48.4281203033018,274.1308589499036,-5.85897250521394,48.80734478009299,267.09910820113384,-30.36935857649842,52.2904366274673,181.28167652038735,-92.48349833844789,56.5403717661782,1.6493365893365894,0.280883190883191,0.26077330077330085,-0.019690679690679835,-0.011485551485551526,0.004,0.052930089540089535,39256860.93254297,16914185.537950754
C6:open,1.652820512820513,1.647985347985348,210.69475918376747,39.23708861046693,47.80077735063478,273.4227184146651,4.382575217915908,48.68034546126006,273.42961494404756,-4.7168340302586085,49.41122766081149,252.69632703983999,-22.863908441235928,53.38297489873614,172.66284781979817,-52.23212838039325,58.020472624191385,1.6527838827838828,0.2750508750508752,0.26050875050875044,-0.01597883597883576,-0.011066341066340968,0.004,0.05296161986161988,41085263.15540363,14806441.082815152
C6:short,1.4473260073260072,1.6495970695970696,1.1063744313380897,36.94540551138272,49.25609789988645,1.3914852936442779,3.059651394760055,49.96892929248422,1.3210492036281916,-2.620420065075349,52.12046877959453,1.280885576830795,-3.8842685889079984,53.46065585303152,1.2792115154295327,-4.627061476160909,53.93902573930518,1.4475498575498578,0.004208384208384212,0.0017338217338218678,-0.0030240130240133008,0.0006919006919008375,0.09,0.0002773626373625841,179478.96091649594,65654.24917505223
C6:parametric:-0.5,1.652014652014652,1.647985347985348,211.28177557518995,39.133774439841176,47.24382581653123,273.499461933619,4.377462564293778,48.18924675476147,273.96258818307683,-4.728954776014055,49.49672854431945,261.0676741316762,-23.542261552304566,52.65425635618818,197.82940314977657,-63.0591434426314,56.40978138750747,1.652197802197802,0.2751485551485554,0.2606308506308509,-0.016068376068376078,-0.011339031339031469,0.003,0.053019943019943,40754170.665107965,16782333.756936554
C6:parametric:-0.2,1.6439560439560439,1.6487912087912089,211.18068577176183,39.424960422183275,50.266553041876534,273.3066575402039,4.415056255667286,50.75963507640162,274.00927058480437,-4.689710616988106,51.86659124604911,266.17673693264135,-23.946607087656805,54.242320944596244,211.60278905586972,-70.53003593835784,58.74663644830508,1.6437281237281236,0.2760317460317462,0.26055352055352043,-0.016422466422466475,-0.011294261294261365,0.003,0.052957598697598696,37903507.00316161,17113888.17504573
C6:parametric:-0.1,1.652820512820513,1.6487912087912089,211.10756864421393,39.230502968952976,47.606832103066,273.24270755267355,4.375936136504453,48.275051341266774,273.8492099018655,-4.793856899757932,48.868723593942214,267.4721833360881,-24.381644391108782,52.64523707952121,212.79711615637285,-73.90173832431458,56.21693333684244,1.6528530728530728,0.27762311762311787,0.2606756206756208,-0.01685795685795699,-0.010846560846561104,0.003,0.052980244200244234,42066215.45851163,18143438.793748237
C6:parametric:-0.05,1.6455677655677656,1.652014652014652,212.085504740914,39.30058812278972,51.660528066301126,274.2223626911239,4.377240601082248,51.66767994803169,274.9065384226368,-4.71473881459226,52.85805027935995,269.65361319246483,-24.272648590635796,54.62804926531602,217.83539417444464,-75.11006869384931,57.87647937524798,1.6461172161172162,0.28157102157102176,0.26133903133903147,-0.019181929181929402,-0.011221001221001115,0.003,0.05315445665445667,38847164.67610888,17709247.049305186
C6:parametric:+0.05,1.650805860805861,1.6495970695970696,212.08585253667894,39.332782802509584,49.08434959012817,274.3385972130649,4.406791714681768,49.430864455961,275.1266904971812,-4.694732515830441,50.14488502394563,271.47266600307137,-24.374361980701487,54.42437760954174,221.24717859439568,-78.20389952918228,58.456728912545316,1.6510175010175012,0.28416768416768445,0.26165649165649174,-0.022673992673992505,-0.011139601139601107,0.003,0.05317819291819291,38560845.865260795,17674277.751402758
C6:parametric:+0.1,1.650805860805861,1.652014652014652,212.31113163900127,39.18677805577214,49.535494176116146,274.27802306748373,4.3608844779308935,49.870741654706116,275.05010668341504,-4.666429544061259,50.47152022916533,272.0541916194656,-24.417515174031493,53.059607159059894,223.07068980447255,-79.74638982832403,56.51513497870417,1.6506634106634106,0.28581196581196544,0.26099308099308094,-0.024428164428164423,-0.011363451363451516,0.003,0.05315056573056573,38048869.721571684,18021576.312928684
C6:parametric:+0.2,1.645970695970696,1.647985347985348,212.75718602563046,39.227194247722615,51.79353782929843,274.7604580158386,4.385126104135303,52.56467899211637,275.56078355483555,-4.671304411507159,53.45707479432247,275.0866531127274,-24.55567351256113,55.00454830264061,226.61101346263203,-82.47408371665536,58.1509878064214,1.6456003256003255,0.2904029304029305,0.26178673178673173,-0.028286528286528223,-0.011518111518111662,0.003,0.05325366707366712,35841533.223569885,18059687.24265837
C6:parametric:+0.5,1.6467765567765569,1.6495970695970696,211.84694963612162,39.43837615767083,49.98919268660587,274.2865995070674,4.429954332993979,50.49820542484581,275.2605607702751,-4.686224556609639,53.31783343763628,279.79846472772533,-25.1779053476162,54.28423990701357,227.5450518053538,-92.10952275882401,58.59587708899386,1.6465730565730563,0.2989010989010987,0.26152625152625175,-0.03639397639397601,-0.011465201465201358,0.003,0.053166247456247415,37768173.80421282,19062682.91362932
C6:cap_degradation:+0.2,1.65,1.6487912087912089,211.1624613269683,39.020976774653754,45.79407950459384,272.7650443752112,4.335726183507498,46.54450582448775,273.45798832108653,-4.743674430411141,47.994039526971775,265.63101473714744,-24.240841348191147,52.51955658143895,209.68112462856593,-71.0884429239951,57.16021714185102,1.6499511599511598,0.2759666259666259,0.2598087098087096,-0.016218966218966346,-0.011017501017500875,0.003,0.05285213268213268,42710141.1252709,17089283.024341404
C6:cap_degradation:+0.5,1.647985347985348,1.6491941391941394,211.54066291218007,39.48575758014367,49.37993197821264,274.40891951616226,4.4237248821213075,50.46349908698635,274.6966811355121,-4.704502555768878,51.1717343155388,261.6471687258095,-23.62802098008744,53.748094698742634,197.55010881477972,-62.95291173169059,57.616739422800805,1.6475702075702074,0.2760317460317462,0.2612291412291411,-0.0163207163207163,-0.011452991452991279,0.003,0.0531731216931217,39220779.942812875,15387445.854935162
C7:open,1.65,1.6487912087912089,211.12068108323132,39.62329906912541,48.29905597804985,273.81923055097036,4.630965529263015,48.65367216977238,274.6007903447054,-0.24395861388587287,50.822890116344745,271.3987318435108,-1.5926912361802539,53.55433013975487,266.9189112625429,-2.641064851639343,57.51569802992152,1.6497720797720796,0.27660968660968677,0.26108669108669114,-0.01652421652421643,-0.011151811151811186,0.001,0.05328620675620675,40269409.63234558,18881236.49115318
C7:short,0.04996336996336996,1.6471794871794871,0.02923315401418083,127.68496900691787,39.31507732351421,0.030406824968946592,98.21568339380286,39.436659726269156,0.05347944498969297,83.61070901139254,40.41977847961382,0.23661274660384118,75.07645510876732,51.45942920482275,0.6452501197711089,56.934518515776176,57.23939577028511,0.04995929995929996,0.002498982498982505,3.2560032560018104e-05,-0.0032275132275132387,-3.256003256003198e-05,0.0515,-1.4570614570624702e-06,43136.818332636896,57135.31501400107
C7:parametric:-0.5,1.6471794871794871,1.6495970695970696,211.36709849984302,39.40154183470275,49.88676703527756,274.3349381054477,4.51772706153018,51.36621907475465,275.20171068034915,-2.4536233305777366,53.399200374306815,277.00231366762523,-12.931381970748387,56.34955902718154,300.32011780861524,-43.98404258372464,59.14541347499882,1.6471591371591372,0.30420024420024405,0.26155067155067147,-0.0411436711436709,-0.011359381359381526,0.002,0.053294782254782264,35827895.277339846,18868767.050328925
C7:parametric:-0.2,1.65,1.6504029304029304,212.51511492332884,39.20562463134411,50.466918489799426,274.05306594491753,4.430305766221915,51.04407143691033,274.7293288690006,-3.8282473993233515,52.75927776487353,273.94396649589834,-19.923799640186882,53.528755669152766,254.25428304002983,-66.26458112543594,56.95899098222068,1.6499633699633698,0.288970288970289,0.2612779812779812,-0.02678062678062676,-0.011237281237281405,0.003,0.05316881155881154,37811530.34666219,18230606.248301156
C7:parametric:-0.1,1.6487912087912089,1.647985347985348,211.71993772777392,39.13463920777539,49.242863518511,273.9938148756154,4.390300319233642,49.41225131442356,274.53179131212306,-4.264241371991217,50.406948676048444,272.249163323179,-22.15145497655422,52.02647705434913,236.214654530391,-71.64571186789154,56.51129882922258,1.648880748880749,0.28468864468864463,0.26087098087098093,-0.023606023606023596,-0.011066341066340746,0.003,0.05312170126170129,39731273.76559985,19415855.084420957
C7:parametric:-0.05,1.6491941391941394,1.647985347985348,212.05871835398807,39.338384491841644,48.41069835292919,274.09772954131535,4.3882884816121255,48.60534210605937,274.8758602648016,-4.5036546287637105,48.963937704655834,271.5434374658671,-23.324428118110134,52.49281643877421,227.00017278239204,-74.35238377857101,56.67198238918789,1.6492511192511192,0.2839031339031338,0.261021571021571,-0.022234432234432222,-0.011208791208791036,0.003,0.0531159584859585,38289762.41894081,18226377.81231486
C7:parametric:+0.05,1.6475824175824174,1.6491941391941394,211.00875410551805,39.344670245080714,49.91497401209236,273.8351907731868,4.355864054670902,50.75525479922302,274.50861954314945,-4.9741390357217,51.50599834801375,269.03653125816766,-25.66864528955037,52.777387109715,208.85159823769726,-78.97781931015737,55.42831834122161,1.6474358974358974,0.2800854700854699,0.26090354090354084,-0.018673178673178525,-0.011066341066341301,0.003,0.05301864875864874,38725756.08821127,18478790.736740004
C7:parametric:+0.1,1.6504029304029304,1.65,211.8379598482993,39.250912251068144,49.10274600169124,273.584273913579,4.364626808509605,49.480299135446515,274.1435368352196,-5.197263356514316,49.76840280774901,267.4610704500486,-26.72924049681264,52.04215622664792,201.12669915428148,-80.773492301079,56.71142595174635,1.65000814000814,0.279084249084249,0.26080179080179067,-0.017696377696378107,-0.011282051282051175,0.003,0.05298602360602359,39053909.20129792,17383555.15269793
C7:parametric:+0.2,1.6467765567765569,1.650805860805861,210.9388792856156,39.42446646396462,49.24750963401256,273.764269440283,4.371021555831293,49.25107054416116,274.10760526676086,-5.588887528841487,49.45907625347607,264.3115732433394,-28.654096773869675,51.449019793403735,187.62350776954764,-84.24609386191838,55.273050000846794,1.6469597069597068,0.27704924704924705,0.26102564102564096,-0.016707366707366833,-0.011412291412291276,0.004,0.05299102157102159,39974434.825687066,17094257.057465736
C7:parametric:+0.5,1.6504029304029304,1.6512087912087912,211.85691108614984,39.26582823164473,47.782110423676784,273.86382750961786,4.281752778182691,48.88597792250944,273.8494829894199,-6.961488497533175,49.39369450984049,255.28312646026748,-35.063833830608445,52.6340625902222,151.28627652021828,-92.49651457811424,56.34672088506983,1.6502971102971102,0.27569800569800584,0.2612047212047214,-0.016141636141636218,-0.011180301180300778,0.004,0.05290893772893769,39295984.01071943,13910428.90033064
C7:cap_degradation:+0.2,1.6512087912087912,1.647985347985348,211.65801008723162,39.33380975235801,50.52037330182811,273.67092020466816,4.4664750062700005,51.395521179076596,274.7244000674873,-3.786575984675194,52.11996997260121,273.91565134542213,-19.74058552785243,54.321578911490064,255.3117447625522,-65.574670198147,58.58124468774744,1.651184371184371,0.2890109890109893,0.26077737077737095,-0.02690272690272666,-0.011351241351241326,0.003,0.053129613349613324,37965890.226675406,18125206.438793004
C7:cap_degradation:+0.5,1.6524175824175824,1.6512087912087912,211.9994997196928,39.04221411673565,48.58482451398224,273.3636904249413,4.475585426634398,48.78923086173428,274.3429676725883,-2.462088033202023,51.292520963015505,276.36948129186374,-12.890501698481295,54.1299708644404,302.01194848538125,-43.920579367102036,58.44465030009121,1.6520512820512818,0.30548636548636554,0.26055352055352043,-0.04109890109890102,-0.011497761497761383,0.002,0.053160899470899484,38629760.31836444,18777088.370123073
R15:open,0.05238095238095238,0.04996336996336996,0.04198406648318483,27.109984314003007,44.20781363228724,0.04371828755155206,2.221514776853117,41.788640573579315,0.04594629539734689,-3.4466651394717385,41.29093927085769,0.03988245623505531,-23.033899925190966,41.60388509237094,0.038682722423381985,3.956581637507435,40.19412326351997,0.052380952380952375,0.0032763532763532797,0.0008587708587708479,-0.0032926332926332923,-0.0005982905982905955,0.0045000000000000005,2.8624338624339224e-05,42175.068951003996,40991.989711448536
R15:short,3.249230769230769,3.25003663003663,0.039172349019265515,26.46128599093901,42.340027476847304,0.03694771592039467,-8.642445461851198,41.011537663355696,0.03850282542984997,-4.403542398832383,40.744589512825705,0.040735438612186314,-22.86141909460977,42.33372634451882,0.037398469080517666,-35.91296052496695,41.46289378866577,3.24950345950346,0.0027024827024828557,0.00024013024012981,-0.0032193732193739333,-0.00019536019536015026,0.041,6.7928367929257495e-06,36041.70737815341,39498.96250359968
R15:parametric:-0.5,2.197985347985348,2.1987912087912087,212.0364253694601,39.41796477928899,48.83839764032746,274.33314512966064,4.392290761919794,49.346515676012345,274.9617049337676,-4.689189115819076,50.191371395339374,270.53668055876165,-24.261000581526442,53.68666638386986,219.29028893558865,-76.44494283425435,57.82113285533835,2.197903947903948,0.28256003256003237,0.2613878713878717,-0.0207122507122508,-0.011098901098901104,0.003,0.0531787505087504,39385135.01787485,17829491.36813372
R15:parametric:-0.2,1.8333333333333335,1.8325274725274725,211.01317295772657,39.286719449571045,47.64355831691282,273.57571197486527,4.398211813543446,49.224544044591326,274.32489078360436,-4.690092135230782,50.368889613768054,270.0066828948041,-24.336629639704423,52.94109812418023,219.36289313731731,-76.73716310678778,57.9659276171045,1.8334879934879935,0.2822832722832723,0.2609320309320311,-0.020545380545380465,-0.011355311355311759,0.003,0.05304514448514448,40921728.22289248,17761864.514122196
R15:parametric:-0.1,1.7354212454212454,1.7378388278388277,211.86960999992388,39.120431394602946,49.70164317406673,273.7185511471283,4.37422588588904,50.1961993556795,274.268105744552,-4.765783378147464,50.44359916840858,269.5720206436365,-24.58748907398273,52.687474126234605,216.904626391817,-76.90320068482805,56.024242135046066,1.7353235653235652,0.28129426129426127,0.260850630850631,-0.01999592999593014,-0.011233211233211082,0.003,0.05304843711843707,38886853.063410476,18650481.38546534
R15:parametric:-0.05,1.6943223443223443,1.6939194139194138,212.38241717119593,39.35914831625769,49.81602977396882,274.2594835875467,4.42830049636023,50.101975150124645,274.9198603816317,-4.700327844325482,50.93129193777334,270.4182246106142,-24.417488923667385,54.33052813194932,219.09463599932832,-76.85984407197549,58.75689156419298,1.6943671143671146,0.28249491249491276,0.2613308913308914,-0.02084656084656078,-0.011461131461131258,0.003,0.05316379731379736,36955865.805085,17107139.54067655
R15:parametric:+0.05,1.6072893772893773,1.61010989010989,211.56753287858373,39.27783963803296,50.1028168072159,274.0111592396364,4.397035619723033,50.87672021172111,274.5841877284205,-4.749912795492158,51.31428500913198,270.14980195177253,-24.586579047635926,52.40700355900489,217.54740432294477,-76.80689004835855,56.60207443303206,1.607301587301587,0.28218559218559225,0.26122507122507155,-0.02024420024420026,-0.0113105413105411,0.003,0.053071339031339065,38120568.38983217,18944966.335964173
R15:parametric:+0.1,1.5714285714285714,1.5702197802197801,211.42253490173255,39.223000498477276,50.11153784060286,274.4628346540402,4.3956492527759075,50.81256849363332,275.03364504917886,-4.71433553069726,51.732525511260604,270.26745149128135,-24.34342852384469,54.09915024888815,219.19889118305832,-76.50550269695154,59.18411838049516,1.5715181115181114,0.2826455026455027,0.2612006512006514,-0.020801790801790898,-0.011318681318681412,0.003,0.05318997964997964,39307696.57542838,17023375.80898732
R15:parametric:+0.2,1.4980952380952381,1.498901098901099,210.97409066757407,39.445633617156744,48.750436242220246,273.454183570082,4.402075671962731,49.6391064621995,274.2289699523575,-4.738232298753588,49.944167161949345,269.7556457634046,-24.4900224975596,52.347582594701024,218.1722965247733,-76.99376978251479,56.5219364152654,1.4977492877492877,0.2817501017501016,0.2606552706552706,-0.020105820105820182,-0.01119658119658129,0.003,0.05298192104192105,39687544.32277292,17953000.02747314
R15:parametric:+0.5,1.32,1.3224175824175823,211.34597937679405,39.3129143631169,47.34918424344329,273.83875036943533,4.384568493023109,47.79806169352067,274.52121984007596,-4.7475877690538475,48.90623266712426,269.4653486874081,-24.460016411536778,51.79155512690652,217.13084341941078,-76.83069204297509,56.121246027097655,1.3198860398860397,0.2815954415954417,0.2608302808302809,-0.020089540089540114,-0.011094831094831337,0.003,0.05305035002034996,40279647.90147565,18305426.732116543
R16:open,3.245201465201465,3.25003663003663,0.03957083550159013,34.2612345207024,42.2765508836747,0.04190192463702058,-9.705162334538254,44.23782923082086,0.04573490689718774,-4.313288566210602,45.68118034826364,0.043375115999279304,-22.685474567412044,45.02691809802906,0.042042321628038865,7.433272194223941,44.7579829071104,3.245059015059015,0.00286528286528287,0.00032153032153003913,-0.003219373219373267,-0.00036223036223081984,0.0325,7.008547008523492e-06,45802.19649401658,41112.323496455094
R16:short,0.04996336996336996,0.04996336996336996,0.03971292775032661,26.96036094677074,42.56691004136378,0.0468613522341235,-10.846607304017368,43.49425510307295,0.03686289263943389,-4.653071809721309,41.75826211460249,0.03878307072979908,-24.0691022220468,40.95019301007605,0.04224094776143428,-34.885999023218474,43.82241323391656,0.05039886039886041,0.0035083435083435068,0.0011803011803011819,-0.003296703296703292,-0.00030932030932031424,0.0075,2.7773707773708572e-05,39621.64570349554,40450.504168330044
R16:parametric:-0.5,1.0963736263736266,1.097985347985348,211.36519332947364,39.21310627265371,47.95414212735734,273.779500839074,4.381558186908843,49.45674316508919,274.6011314358245,-4.768251690269816,50.14146292755625,269.6989012109702,-24.560990075986673,53.16173846682628,217.43103228841557,-76.94962966532471,57.32544928491001,1.096149776149776,0.28125763125763115,0.26090761090761094,-0.01977614977614972,-0.011090761090761125,0.003,0.05303005698005696,39348869.90749615,18342186.53627956
R16:parametric:-0.2,1.4682783882783883,1.4658608058608058,211.15956377095176,39.41755953815951,48.78283414910351,273.83472594890554,4.412025855966915,50.24905299420417,274.4339696272485,-4.742072282701363,50.85780888970548,270.444064358275,-24.528279619868357,54.24974305242451,218.08585725412962,-76.70168118705107,57.18331809783744,1.468188848188848,0.28252747252747257,0.260765160765161,-0.02030932030932009,-0.011127391127391029,0.003,0.0530379812779813,37157685.76165737,18534492.725520186
R16:parametric:-0.1,1.5625641025641026,1.5657875457875459,212.50486041606007,39.174305691620084,49.665535935762755,273.8917104516755,4.379160803829722,50.13475537990084,274.61608776444496,-4.729462324749367,50.48403221440408,270.57480248709885,-24.41074497152561,53.104646597045786,218.58216932975893,-76.50730345540491,57.198426370432216,1.5625559625559624,0.28243793243793247,0.2611925111925113,-0.02037444037444025,-0.011269841269841319,0.003,0.053074114774114785,38265318.45686148,18685190.984881055
R16:parametric:-0.05,1.610915750915751,1.6093040293040293,211.43005445216045,39.248248017498355,49.479118543774455,273.56575727881807,4.359390085954402,49.97533138802241,274.1560735145738,-4.74094363877322,50.667269087393564,269.6710184940335,-24.392929969158292,53.20986353929545,217.926832812327,-76.51674046425488,58.44204830662171,1.6108547008547007,0.28156695156695144,0.26074074074074083,-0.02037851037851046,-0.0111843711843711,0.003,0.05297877492877492,40421007.85865527,18141013.14119314
