,R1,R2,R3,R4,C1,C2,C3,R5,R6,R7,R8,C4,R9,C5,R10,R11,R12,R13,R14,C6,C7,R15,R16,C8
dc_out,-3.628166773799566e-13,2.6291063578257724e-14,-3.8910774095821434e-13,3.628166773799566e-13,0.0,0.0,0.0,-3.628166773799566e-13,0.0,7.519244183381709e-13,-3.628166773799566e-13,0.0,3.628166773799566e-13,0.0,-2.1008663084114182e-10,5.313798073629711e-05,-5.3132672517978534e-05,-1.5774638146954635e-14,-5.258212715651545e-15,0.0,0.0,-0.3907166272129733,0.3907166272132362,0.0
dc_ina_out,-4.047558419197929e-09,4.039465583561524e-09,2.5008233553401098e-08,-2.501530799529131e-08,0.0,0.0,0.0,-2.993398684639844e-11,-1.2770657577245515e-11,9.301329548552023e-13,-8.011364136709042e-13,0.0,-9.328486715117138e-12,0.0,-6.7892916412788485e-15,6.110362477150964e-14,-6.7892916412788485e-15,0.0,0.0,0.0,0.0,-0.5045192460214774,0.504519246021457,0.0
dc_rld_out,1.0428292459682747e-09,1.0722897541028416e-09,-3.946718798894608e-08,-3.946753715052397e-08,0.0,0.0,0.0,-1.4897560656689636e-11,0.0,-4.55804252818572e-09,4.569652150650601e-09,0.0,4.309464217005645e-08,0.0,3.346131788123649e-13,-3.098809003784075e-12,3.346131788123649e-13,0.0,0.0,0.0,0.0,-1.0811097820849065,1.0811097820862887,0.0
acd_mag_0.05,-2.9747580302060838e-05,-2.968777907791889e-05,0.0001844532030525046,0.00018408238067645189,-3.618289314132076e-11,-3.979161582727864e-11,-1.519641419427356e-09,-0.02248300146503986,-0.022483238753935708,2.384984221157771e-10,-2.385222394473311e-10,3.9695552590010815e-16,-5.160421836701406e-15,0.02391208833489867,0.023912088328870106,-0.05893894703433516,0.05893305688839423,-1.4528175292418058e-10,-1.463991827295894e-10,4.392930159927471e-09,-4.6844082513075064e-09,0.0,0.0,0.0
acd_ph_0.05,-2.111889033993395e-06,-2.0914369054643667e-06,-1.242053436291498e-06,-1.365139535354634e-06,-6.246024774095418e-07,-6.233465015791442e-07,-2.4958979535803415e-05,1.39687719868003e-07,1.3976855727791285e-07,8.071749089202338e-11,5.196490772031417e-14,8.077745040093145e-11,1.1991901781610962e-14,-0.3157936396765839,-0.31579363958552936,2.193379374974139e-06,-2.1915719755241177e-06,-0.00012556894261285016,-0.00012556869956897946,-2.614914129492148e-10,-0.0002511374240171578,-1.1991901781610962e-14,-1.1991901781610962e-14,0.0
acc_mag_0.05,-0.0002841164426342775,0.00028411290784987334,0.0002621415331436596,-0.0003060877503711408,-4.540564774879053e-10,4.554284057213267e-10,1.2529306755057064e-12,-1.0681068457338526e-06,-1.0681172073657669e-06,-1.0383763992873612e-10,1.0347336346949421e-10,-7.738622530059507e-13,-5.838477751748415e-11,1.1360098623256096e-06,1.1360098628252777e-06,-2.800057408713528e-06,2.799777580637015e-06,-6.90213951698329e-15,-6.955137901823378e-15,2.0869826037034096e-13,-2.2317490240545987e-13,3.1026737864093676e-16,3.1026737864093676e-16,3.683243729036012e-16
acd_mag_0.5,-2.9597934555058057e-05,-2.9538487439642385e-05,0.00018351254320128177,0.0001831428622724283,-3.601122272662631e-09,-3.958247491793393e-09,-1.51187380553623e-07,-0.022369434683095865,-0.022369670773365734,2.373145729754873e-10,-2.3732501061953734e-10,1.657743466773472e-14,-3.0698953088397632e-15,0.0003938630136477227,0.0003938630142205652,-0.05864123289250716,0.058635372499100634,-1.4457856764678457e-08,-1.4568999868418753e-08,4.370708979878043e-07,-4.66077769602441e-07,0.0,0.0,0.0
acd_ph_0.5,-3.5960882823463856e-05,-3.561264965847551e-05,-2.1148302254689296e-05,-2.3243946624279713e-05,-1.063513205313352e-05,-1.0613699670047775e-05,-0.00042497663443895214,2.3785857125655015e-06,2.3799591613681447e-06,1.3744919065611884e-09,8.746417842385585e-13,1.3753691008019958e-09,1.5825230726495319e-13,-0.08901116395133125,-0.08901116388621554,3.734993143493025e-05,-3.7319154756785274e-05,-0.002138185953339035,-0.0021381818055724367,-3.5552170386970345e-08,-0.004276332942810002,0.0,0.0,0.0
acc_mag_0.5,-0.00035122434758156745,0.0003512199734439661,0.00032405553120721294,-0.00037838073639467185,-5.628425401217396e-08,5.6285206071114355e-08,5.492662569478207e-13,-1.3204042486772651e-06,-1.3204180829124106e-06,-1.2965455565257973e-10,1.2805296438147188e-10,1.5269793744131525e-13,-7.03533130228386e-11,2.324885968749912e-08,2.324885960491814e-08,-3.4614631260893168e-06,3.461117199778759e-06,-8.53415563831271e-13,-8.599760984344163e-13,2.5799336888409674e-11,-2.751159646129267e-11,-2.1290462552605283e-16,-2.1290462552605283e-16,-3.830830221725679e-16
acd_mag_10,-2.52645904807353e-05,-2.5232362619044514e-05,0.00015238925929175471,0.00015183425264358538,-1.190064346808705e-06,-1.3087056198769055e-06,-4.9975399105002236e-05,-0.018938828166299066,-0.01893902804257531,2.0678545262358432e-10,-2.011148973812838e-10,5.693892994806777e-12,-6.353054848928228e-13,8.391098440617476e-07,8.391104238752432e-07,-0.049647918440709,0.049642956828049166,-5.328417646506327e-06,-5.365895115729907e-06,0.00014753857623820769,-0.00015822596144740217,-2.074466889445952e-15,-2.074466889445952e-15,0.0
acd_ph_10,-5.301084563596867e-05,-5.249692717134312e-05,-3.0449266655142614e-05,-3.348280409595379e-05,-1.5389360594516596e-05,-1.5333283866726414e-05,-0.0006144528886637577,3.509181145711996e-06,3.5112069438240244e-06,2.0295199032822086e-09,1.456795170161375e-12,2.030976510162959e-09,1.9575822393405406e-13,-0.00033048273395597764,-0.00033048267468422857,5.510324734120299e-05,-5.505784181389655e-05,-0.0031631181837673736,-0.0031631065414575387,-1.8536983761276475e-05,-0.00630768793399891,0.0,0.0,0.0
acc_mag_10,-0.0003521029711503018,0.00035209803883202393,0.0003234970816076769,-0.0003775417057186925,-1.9962138553340553e-05,1.9962127943065474e-05,-9.531004382664484e-15,-1.3292084897201763e-06,-1.3292225283693236e-06,-1.1638856331017592e-10,1.28772274059446e-10,1.2345966375024544e-11,-3.170736063385748e-11,5.88793761863796e-11,5.888214734629892e-11,-3.4845414406132326e-06,3.484193208795204e-06,-3.739752879026052e-10,-3.7660560346107687e-10,1.035500267993804e-08,-1.1105097976608989e-08,1.5670352862264607e-16,1.5670352862264607e-16,7.46407303703038e-16
acd_mag_50,-2.0973128048628518e-05,-2.1267842320740614e-05,7.905220856000236e-05,7.591129274793589e-05,-1.3770098728523902e-05,-1.530202994445085e-05,-0.000581442536702527,-0.01386206621825516,-0.013862212403007473,3.0541103357953013e-10,-1.4915244504687126e-10,1.562701897682147e-10,-1.174238392174252e-11,2.457020496480517e-08,2.4570661666778215e-08,-0.03633896609271421,0.036335334897209685,-0.00028563607380519164,-0.00028624918225932236,0.0024840518129543307,-0.0030557421075000355,1.5468314074417942e-15,1.5468314074417942e-15,0.0
acd_ph_50,-0.0002203999671229853,-0.000218218818125316,-8.102967264971701e-05,-9.003816673486106e-05,-4.590279108291901e-05,-4.4077715701150395e-05,-0.0017996101905904268,1.4768840534933933e-05,1.4777342310215222e-05,8.651690261312812e-09,9.193980201391182e-12,8.660882762329174e-09,3.275549589780613e-12,-5.563604468157647e-05,-5.563579560414525e-05,0.00023191706121399226,-0.0002317259670295249,-0.014106717384840354,-0.014106121102260805,-0.0019307413181366526,-0.026282042148414213,2.1131214694410768e-16,2.1131214694410768e-16,0.0
acc_mag_50,-0.00039576556321784944,0.0003957507592910575,0.0003410205266996397,-0.00039367639924042027,-0.00020095063291971081,0.00020094646639944836,1.232880428764276e-14,-1.6156930457573264e-06,-1.6157101065545172e-06,4.768230863710963e-10,1.4808119994850554e-10,6.248891810146716e-10,1.102000646126328e-09,2.8499468058727317e-12,2.8503912952932893e-12,-4.235542747682311e-06,4.235119506168917e-06,-3.329274460623374e-08,-3.336420706739645e-08,2.8953241225381886e-07,-3.561666379805567e-07,8.060001331093323e-16,8.060001331093323e-16,1.4450252268065676e-16
acd_mag_150,-2.660451837144755e-05,-2.9334008572254432e-05,3.422333260362605e-05,2.752892684297049e-05,-2.7768563289919966e-05,-3.3099539326395754e-05,-0.0012173622207428522,-0.01292026020476156,-0.012920395682124849,2.049521594200076e-09,-1.3988117255533767e-10,1.909635753700516e-09,-9.550925075686867e-11,2.5451823612477997e-09,2.545844542478232e-09,-0.033867922719925385,0.033864541347868066,-0.010652535339615092,-0.010652905308425433,0.0051958577132851175,-0.02650060796518071,0.0,0.0,0.0
acd_ph_150,-0.0012399947287758623,-0.001226686895454275,-0.00011139272744793149,-0.00013276007436480427,-0.00012191526340808556,-9.805162092096147e-05,-0.004399340099989409,8.445099727139732e-05,8.449928996395066e-05,4.975484740534762e-08,7.658057121892083e-11,4.9831429587602014e-08,1.51316506821019e-10,-3.5348635692648194e-05,-3.5347211501847095e-05,0.0013281038573941962,-0.0013270110202337016,-0.08514702679589686,-0.0851287069736349,-0.06777923678794824,-0.10250308623414403,0.0,0.0,0.0
acc_mag_150,-0.0005069831445857962,0.0005069291738235864,0.0004681845303756805,-0.0005148011422342924,-0.0005184261317335722,0.0005184327592295136,-1.2445848397016624e-15,-2.7544139469372473e-06,-2.754442766967944e-06,1.438274158925883e-08,2.5907964922620303e-10,1.4641822866432223e-08,1.7969251707331814e-08,5.155508309864241e-13,5.19044454561579e-13,-7.2203931739111585e-06,7.219672290898733e-06,-2.271042802322513e-06,-2.271121676760878e-06,1.1077189516347633e-06,-5.649736242617938e-06,1.4095629641321343e-15,1.4095629641321343e-15,-8.570303520572902e-16
zlo_mag_10,4.5737952800620993e-05,4.573795256317633e-05,1.7175030976796291e-06,1.717502992300927e-06,-1.4106434489655265e-08,-1.4107323034663085e-08,-5.642751456807828e-07,-0.00021383945357741327,-0.00021384171039250444,0.0,0.0,0.0,0.0,9.474440021786356e-09,9.474446491804651e-09,-0.0005605776480715106,0.0005605216262029816,-6.01634857682338e-08,-6.058664617069162e-08,1.665866982218433e-06,-1.7865388946396484e-06,0.0,0.0,0.0
zlo_mag_100,0.00017192080988937135,0.0001719208399963013,2.04865771765908e-06,2.048654551559116e-06,-1.2116154191668273e-06,-1.2117237455922692e-06,-4.846678036827441e-05,-0.0006162713455225198,-0.0006162778303295829,3.027539569681385e-16,0.0,0.0,0.0,2.7306499568597194e-10,2.730894514778292e-10,-0.001615499091371573,0.0016153377131111948,-0.00014236602094599038,-0.00014243219970447798,0.0003076000742393723,-0.0005923456728893809,0.0,0.0,0.0
pulse_baseline,4.101346004581752e-08,-1.6556357526702796e-09,4.440232821949973e-08,1.857808862828987e-08,5.99083828917225e-08,1.4797045683237039e-08,8.716969384818964e-09,1.3093563472513737e-09,-4.849233790566215e-08,1.9002364386685735e-08,-1.5743782886097123e-08,-4.0663136462970304e-08,1.6003635748139093e-09,-1.1572758176159501e-08,3.424361747000043e-08,5.310564893673683e-05,-5.313998685874473e-05,7.3376734853970985e-09,1.584013317824808e-10,5.697346706060776e-10,-8.803579993488475e-11,-0.390775706762144,0.3907757892524879,3.039549061431621e-10
pulse_peak,-1.5971460635181783e-05,-1.3291227989027124e-05,0.00012285153149503979,0.00011742493650510016,4.524397817102879e-05,-6.103917545278574e-06,-0.0008769108252403476,-0.021382882595869835,-0.02135546069027776,-6.115364822403162e-05,-1.567068424148475e-08,-6.117218824176453e-05,5.938143744033625e-07,3.6438673547561074e-05,3.644860315437327e-05,-0.05604334706588074,0.05603749336721272,-0.00020595981830620377,-0.0001890741653397323,0.0070280188264717275,-0.007420902278181512,9.007042782154937e-06,-8.989308922857001e-06,-1.8010401217000342e-10
pulse_end,-2.9421575291531777e-05,-2.9460682667323125e-05,0.00018423934232830868,0.00018381141067436973,1.9426661796489958e-07,8.317452291589928e-08,1.9078065964972227e-06,-0.022432243656624305,-0.022432601251721463,4.130034218691977e-08,-3.934458518471789e-08,-1.002805534760908e-07,-3.8874723073717596e-10,0.0030231552222416695,0.0030232618986556687,-0.05880611760960545,0.05880014310024359,9.506600390241458e-06,9.485808715075316e-06,-4.168818665622025e-09,1.8976446999580877e-05,1.0232612515452396e-07,1.0109553018894797e-07,1.3334669007994796e-09
pulse_undershoot,0.0012031424254640966,0.0027371198890960035,0.0006727850913123793,0.0004190518955522927,0.004554765843181753,0.0020974559289453332,0.011239024511902583,0.00991103677998278,0.013215333711352556,-0.004374225843697843,-1.6302027468673561e-06,-0.004018401531477162,0.0002589918540171105,0.02002457364526714,0.020025094772530606,0.029724951384735132,-0.02970019435383685,0.007858248379666996,0.009713651559687486,-0.057694637945644445,0.07545919460247485,0.0010730112741400828,-0.0010736877721765094,-5.473753037627903e-08
pulse_tail,3.1694097038618635e-05,2.5108825842743373e-05,-0.00014928833423319236,-0.00015356108784597025,9.976907860546084e-06,2.2432729902440317e-06,-2.2869365970004854e-07,0.019086764388737843,0.019078914902960858,2.6119031222027065e-06,-2.657136715681781e-06,-6.6532042721588e-06,-7.821418990770019e-08,0.04040006167507395,0.04040725913736221,0.05002988570363978,-0.0500313481758009,-6.661337401277081e-06,-8.069747067405657e-06,6.942166929199552e-09,-1.6135379728889924e-05,6.92687164091445e-06,6.783465523845849e-06,-4.499175319834615e-08
pulse_rise_time,0.0,0.0,0.0,0.0,0.0,0.0,0.0,0.0,0.0,0.0,0.0,0.0,0.0,0.0,0.0,0.0,0.0,0.0,0.0,0.0,0.0,0.0,0.0,0.0
pulse_area,-3.050962716258955e-05,-3.04052171911663e-05,0.0001751910078209054,0.00017459382009848246,1.9026070817685818e-06,-8.513643652387551e-08,-3.3042413555602496e-05,-0.021547970790144092,-0.0215470460726953,-2.4368364996375503e-06,-2.2915586499272942e-08,-2.5184011891287514e-06,1.1124191742904012e-07,0.0014432638163952502,0.0014433240088964246,-0.05648486563872723,0.056479158883456844,-0.00017631144854398373,-0.00017560705617811434,-7.979962796865771e-07,-0.00035110907059482437,4.01381877310346e-07,-2.859411032321476e-07,9.518839996012076e-10
