condition,acd_mag_0.05,acd_ph_0.05,cmrr_db_0.05,acd_mag_0.5,acd_ph_0.5,cmrr_db_0.5,acd_mag_10,acd_ph_10,cmrr_db_10,acd_mag_50,acd_ph_50,cmrr_db_50,acd_mag_150,acd_ph_150,cmrr_db_150
healthy,283.66716610698,39.35672253185105,45.814376623295566,366.19475297871065,4.415469888193523,46.78582738091162,366.8436475889246,-5.69559880728123,45.02594746378026,353.2796631809816,-25.887748969877777,39.82847375115921,287.0364510542918,-75.60568687520477,37.5978152906206
R1:open,6.151404307984058,39.04496407211837,-12.195413915732335,7.875474571974423,2.891417001617681,-10.046596521083453,6.759203077196433,-36.160165775395434,-11.373876383276423,2.4183373562117634,-96.49478923050115,-20.301118632351237,0.6880138683917371,-166.70518644990594,-31.240435308380665
R1:short,320.0702204458221,39.15153368501763,54.16509357893618,410.748711657116,4.414445197789296,59.548521621861504,411.92572696758475,-4.390289223836614,54.99599620760507,408.44441839710214,-23.32238553593293,45.021193334948066,334.3111304909577,-75.01400332635872,38.883453959226586
R1:parametric:-0.5,274.4275532268391,38.67638130263611,42.69685031686791,350.32112019508884,4.240761549865453,43.19946345460149,348.6811487871422,-6.372144411355695,42.643517746777206,336.23352152456005,-25.234106749629916,41.364848372835255,275.0419790869128,-75.08288235847156,35.71077165846416
R1:parametric:-0.2,297.55847011437464,38.67256183572867,46.52104709791986,379.6928212254152,4.4922540407909155,47.0309287459919,389.3987530667772,-3.1741197869283604,47.67002179888846,391.76465586928884,-22.454353292796537,46.94990740628954,326.0071250228645,-73.56164008951635,42.95810089331165
R1:parametric:-0.1,244.1620274946967,39.079868537791114,39.14434734386135,314.6246930301205,4.271170324921787,40.191600148063614,311.51925789652546,-6.924167481517562,37.48119137271288,294.19320094871097,-25.934770586669387,31.780513262828787,241.71143835295453,-75.76093885139369,30.815231407852313
R1:parametric:-0.05,286.8761425491499,39.60869683201558,39.818872329587656,372.4591843638932,4.432807125212255,49.17231173321106,371.6677849137406,-5.8976598212043605,48.266941309748255,356.2110162979223,-26.61945983164025,43.52533967318574,284.0624742391493,-76.87564740590014,39.36408206635511
R1:parametric:+0.05,300.0668619908139,39.13894368035853,55.393366103349265,385.898851999004,4.639340181784636,54.861069388293735,392.7316770285205,-4.307695571936919,49.50880822540156,388.6043048826399,-23.236574434700724,44.96778659622093,320.94851054214973,-74.70357362499846,42.9865041309496
R1:parametric:+0.1,255.92888533214446,39.18772015393682,38.83474740567628,329.18767489220534,4.277875751386722,39.342180790335846,326.1733827321668,-7.232351256112706,37.23621039516816,300.4396223210478,-28.281880286962235,32.2914873599657,233.82014011920023,-78.05548775100894,31.131606067556177
R1:parametric:+0.2,199.14346456255643,39.38271241703886,21.27929238223494,259.0244661499593,4.367886502521959,26.399800764803963,256.5318682181321,-7.149641498875057,29.48374468382925,235.21121406867724,-26.77492240519631,27.668688060375374,191.94635308396877,-75.29125972969818,24.87860228761325
R1:parametric:+0.5,238.16615991468282,38.92556041001294,34.76572951579214,306.84449168206936,4.373328072025117,37.97633082253806,306.6201046127717,-5.674712510358232,36.50306123232559,291.2647099695279,-26.34452650300917,33.20210141771372,237.37734910663278,-75.07409733366374,28.978733440735006
R2:open,6.9027581140048655,38.51696403007017,-11.186046058840436,8.837096280904815,4.610104698995695,-9.039479732826152,6.905394457032038,12.44946573439963,-11.178214284178347,27.475530991100246,57.485069850779375,0.7914415880827319,66.8266562079263,-9.279768251177593,8.484762986538072
R2:short,306.13641688057487,39.718824499802594,39.0741083272799,397.1296968812361,4.579976280219532,41.990389247352745,399.31117185536596,-4.409459874595237,43.904147896746956,393.78672162234267,-23.82225070123123,39.769687168498905,321.2361464893095,-75.3081646075841,35.01856593031884
R2:parametric:-0.5,318.13810499971953,38.85069121876265,49.08265941596303,407.42559733377294,4.392804751855107,49.09041912305409,408.93384145543075,-4.272133032869923,48.95984225693986,406.00835943536157,-22.85987647268024,42.79742265421921,338.7338780112651,-74.04829237680958,37.8251956488778
R2:parametric:-0.2,317.6834833609061,38.36705828659197,51.5255404797661,404.10458835597194,4.306107215610344,51.51428041078332,405.65714082525574,-4.327738898789526,49.86132245299639,402.92511461661695,-23.360220248737747,44.88639799898772,330.35163544290265,-75.28718093137994,43.40288587622901
R2:parametric:-0.1,293.73196906299216,39.85243353098031,37.69869851572358,382.2066184091942,4.6134410332378675,42.48027777251529,386.10794861876474,-4.118107714560096,46.54259594761517,382.42758741405584,-23.538110411337364,44.156623751123604,310.3407067071382,-74.94724016148724,41.83202410892538
R2:parametric:-0.05,314.7607469541402,39.74005094638782,49.22480966999885,408.844180456609,4.567511228211605,52.1896622113653,410.20103341842406,-4.271466926621438,57.67825384984509,407.076749027564,-22.818638433567877,50.99239667400759,338.1608735462063,-73.38798830094943,45.851080857407766
R2:parametric:+0.05,260.5647789177105,39.314499208848375,41.48495405888749,336.2801195851911,4.47872402649339,41.99236288431602,340.64027861860757,-4.7801663142689605,39.90973561563234,334.1874875286612,-24.35177077933792,35.228258563774624,272.8653082345613,-75.05833367423023,32.079699209577825
R2:parametric:+0.1,319.3679924441163,38.796639786894374,53.690802344189926,408.6470119964357,4.376649446150556,53.639559491174566,409.8166758478087,-4.330321872255661,50.846077782083896,405.9255338974042,-22.961891729294592,43.89564433833409,335.9564776907236,-73.38853919529731,41.508402722545235
R2:parametric:+0.2,281.90211506843264,39.1337267951518,54.12733490889748,362.80498729546565,4.407108729751021,53.016461835989816,364.3079336355532,-4.800765228949514,46.72680734071151,356.0262682194749,-25.19874180424769,41.566402543704406,287.00933225099993,-76.01358353462382,37.89931753876328
R2:parametric:+0.5,267.06572783019703,40.07941532734424,33.52018390677215,350.2598972654069,4.699875762858749,36.589367633878425,355.66327964523424,-4.4665603648226835,43.532732266345576,351.5112956904592,-23.447970689920773,42.148312243353146,289.65632259029593,-74.75786555317366,38.01015321335744
R3:open,310.30446550336086,39.89600731554731,34.28942897424107,403.1126577588265,4.492895951643356,34.876757286701206,401.6703510928547,-5.015883785963157,35.72286969553679,392.98288076780807,-24.166572189805898,34.81017626454399,317.3500788883361,-76.2125395679633,34.64226557248832
R3:short,1.931139173047685,35.97722322185388,-23.51938386483463,2.6520755204224473,33.842358956200215,-20.487492370110022,27.518220331183976,79.34855657909016,-0.34131340619241435,125.88860461270895,51.09170139938758,13.160109326918452,250.9075180505419,-25.628905450246393,19.98273963012514
R3:parametric:-0.5,291.95069680087136,38.941057222983076,30.46916641922207,376.1572255406097,4.484671049271614,33.36591857433056,377.51922436191524,-4.610295178096349,38.124869380582965,370.93507753078245,-24.277206468947444,38.7826828165571,299.87011408214454,-76.13909896090362,37.44006770627325
R3:parametric:-0.2,295.05697219290073,39.09804453728391,38.862082670540076,380.00840005310505,4.7083848851256205,45.43424861218239,392.48377140472434,-3.0728153256877357,48.71255868178114,394.6869993532311,-22.62583545792438,46.49861767391152,327.2668135113606,-74.27785901177984,42.631518215086146
R3:parametric:-0.1,316.3388228095855,39.120507194797185,50.10375461446837,406.6133258573219,4.423658017150518,50.08592565375763,407.77606524550185,-4.47183551750881,48.56194345436629,404.06394655208555,-23.762016423552353,45.260043390153626,327.17916673147954,-76.04867615914543,44.03942008146881
R3:parametric:-0.05,263.5802094932192,39.48242426348784,36.69955862351773,339.9246651543185,4.533013955191912,37.80294068475126,345.14279467691,-4.35338885525895,37.92438197402974,337.3932756935598,-24.970681827322757,34.73683158843529,273.4762583911042,-75.09606465902863,32.322985117507294
R3:parametric:+0.05,318.45828117094806,39.575119745413105,60.18550124511757,411.9208901477076,4.508117611021686,60.03633314254747,413.1153111310206,-4.327364757687199,54.16105990212987,409.83768844598546,-22.964264232484933,45.07638168977194,340.59989400312,-74.27232662541338,42.032890983849825
R3:parametric:+0.1,267.7706885222665,39.05823324515389,37.0835041845897,342.95142585725864,4.319755982516182,37.66331836730886,341.49656344936756,-6.118291780223703,36.988416383585275,327.2537935779635,-26.067250814061644,36.16694501784653,265.94705132649716,-75.3033906267078,36.43478978843115
R3:parametric:+0.2,264.34319549564964,39.23895876800397,34.972242038611284,340.1819140450498,4.3241576813694245,36.07914539714007,339.49851750206165,-6.508116654271395,35.06745473130402,322.993544227242,-27.674096456345342,31.1548994804107,257.1619158026119,-79.41401065298447,29.9404594137632
R3:parametric:+0.5,255.9382559491891,39.213606361503324,32.43558605103687,329.3694356630149,4.2633361804042575,32.99191932184311,324.57162895157705,-7.417637719266244,31.892341431864,301.2271983336639,-26.34384770310158,30.44637923583855,246.73103565506258,-75.55987254913512,29.225775597476705
R4:open,285.5280009300053,39.77973766081334,32.45190075599571,371.46262210029226,4.457697261204401,36.47219648702112,369.29371100390233,-6.564269918004531,40.48976230401852,348.7212464680168,-25.902630993255187,39.700439388467835,283.10892265731775,-75.34568528433738,37.70034258567147
R4:short,1.4801663717796463,40.87263658936371,-24.59751889560839,1.981299609205191,22.94218527953488,-22.1174098435052,13.076149728091227,80.84571141653151,-5.691195381665931,86.77225809946435,64.26693503118307,10.233342539333249,236.86198684070555,-32.631744458488576,17.743260218168334
R4:parametric:-0.5,310.7198308583562,39.627694718419335,37.60103089822927,403.46263887154043,4.549109171687071,41.679442062444835,404.70184462000043,-4.38064342830229,45.85427749563848,400.3106715297117,-23.222366925527062,45.924893187118776,328.02786152731323,-73.79108209811992,45.1557945816686
R4:parametric:-0.2,299.87198315401236,39.53142725485916,33.59122775046198,388.22700052007383,4.589734187120096,43.226220480038265,393.36618775347875,-3.850815906691451,52.319640307071225,392.2688275632626,-23.598714981090165,50.77752655581307,316.6597828226735,-75.75037870465309,48.846814752265196
R4:parametric:-0.1,215.46365961142857,38.9911525969995,30.925715312822433,277.34415549621633,4.0770156562219935,32.78547661813184,271.00544050127206,-11.431967359262284,32.85203359785446,218.3796923616008,-38.129982575190965,29.629780527240694,159.0253627881501,-84.21201579243234,26.214576215461744
R4:parametric:-0.05,239.459619927762,39.68428191153552,36.36318834761422,310.09121253516713,4.541712388654956,37.48402368724475,312.305224042687,-4.236894778692699,36.87817202430576,308.308883021926,-23.806904759048493,32.794860903960156,248.26084556477855,-74.93299298279437,30.244900969444224
R4:parametric:+0.05,293.02081789452393,38.95335852645148,49.866987138845595,375.6790131819768,4.27074931331827,49.11908734908529,374.3223246348089,-6.83677862624882,42.73305227124112,348.64694112281524,-29.663601567647188,34.16602679287867,274.70555817392795,-79.00752418838758,30.414540789785796
R4:parametric:+0.1,311.12894396232116,39.829445902025185,43.897916476096434,404.00990220498164,4.636741837503999,43.92981915140924,408.39632596231945,-4.226186194866871,44.81185907839464,406.05304368388926,-23.24940266555534,44.03475164114788,334.5546589323711,-75.46922698131712,44.869110904266435
R4:parametric:+0.2,276.26816263576234,38.95389655822206,44.17429193520186,355.2117746130944,4.395290012379949,44.67215481020562,355.9745298749257,-4.4553667458380755,43.36554274860987,351.6770902323319,-23.077150165812178,38.136021233878104,289.3703272657202,-73.44090212419225,35.75930496370309
R4:parametric:+0.5,293.6958343443366,39.28041337838997,39.594428043644214,380.7825174558059,4.446164546819876,44.43696312833247,379.30157666468017,-6.475222468031681,53.11466318774108,355.34143093655973,-27.341757236966753,49.94520239656765,288.3242700556924,-75.65273596204904,46.49883169375
C1:open,241.2264158707087,38.82887218073823,33.15577385732703,308.45691822719147,4.466951542107993,34.37169201523062,313.225861289253,-2.843247895550438,29.758520231249328,314.26502045522494,-21.075399829759522,27.40612631207762,266.69031099532305,-65.89132916409382,25.732783753216204
C1:short,1.839868283020588,41.07597830315676,-23.476226390048005,2.4380503888246885,21.488379298789727,-20.983658577573394,15.024754501725084,82.568865714548,-4.954348602103693,102.98159876228968,74.85068328516172,11.750377261525784,312.5901371410984,-20.504516019643862,21.919190109032126
C1:parametric:-0.5,282.73045118616034,39.02913090158479,44.088989174996115,363.10818057638585,4.298213324283898,44.598879370437956,362.1213304200617,-6.477232946060855,41.34946428419051,342.42510378069346,-27.867647136570753,33.74340050318794,276.7242835282808,-76.65068015678828,30.40075435252423
C1:parametric:-0.2,278.65070765719884,39.9119836615775,41.3354721245125,364.5656902508691,4.529855070906326,44.10331195497442,363.90805363928575,-6.566087786463024,48.185451725735724,345.3451388547412,-28.544766023773906,42.305459691827636,271.31927781491504,-79.32390023082583,36.460351823899735
C1:parametric:-0.1,267.1529291406884,38.43784045084897,38.915020423800556,340.39939430078965,4.285817019020799,39.922486955894776,342.0094712895915,-4.859485862817045,39.81380516487589,335.433595514677,-24.95310716928813,35.597057122173005,271.42910353686904,-76.36100399347387,32.23069669641921
C1:parametric:-0.05,320.0323829072255,38.896770261266255,52.453632121090756,410.11811338751943,4.387029027467428,52.468194472204715,411.47035944178674,-4.343955255884085,52.4145205015951,408.34151038116187,-23.18668104556489,51.03561108522766,337.1803479277624,-74.81055300145806,50.24744101112943
C1:parametric:+0.05,306.2792577358649,39.10603050028548,52.37689448678495,393.4995205828915,4.441656230154875,52.776789095288635,395.81852589689146,-4.126879610237579,45.30597336091512,393.48132904702265,-23.05420752636612,36.93625179179873,324.5415456733914,-74.04898172591558,32.82974995429784
C1:parametric:+0.1,256.9966597162401,38.764739561135485,33.77499932169893,328.8224045637104,4.294184295817389,34.602539615023076,329.27587594114874,-6.727875808658466,32.728698247447475,313.3899174992823,-26.58938558719302,30.41422554230125,253.0661689259976,-76.28451119308916,28.266058344519926
C1:parametric:+0.2,318.19232171502154,39.571356832201516,56.741488289113555,411.53422264872086,4.497825280585255,56.73328836865597,412.7073591324262,-4.417886746028131,54.67627679645544,408.88767325709875,-23.370116559621003,46.148666825308666,336.3670731837948,-75.17503230463416,41.827369951024494
C1:parametric:+0.5,275.698594430253,39.50678140626765,41.29665347032231,355.82863860439465,4.27822159128264,41.87471337432571,352.1005000065488,-8.359352356230088,40.17397667297549,328.341640581944,-29.345917407398158,32.98592208278325,262.4277053397325,-77.79142018828458,29.378431041583994
C1:cap_degradation:+0.2,298.4165912586498,39.39548448182479,39.72896737266683,385.32989382637504,4.44224643417896,39.73181175012021,385.1759360138326,-4.928669542435555,39.65606577168721,375.5121705484097,-23.958075498271253,40.66790749612233,307.1429992854296,-75.27145412078988,36.18553552544259
C1:cap_degradation:+0.5,298.92465895563015,38.847176246171934,46.38645811962972,383.15312466542287,4.31939571316435,46.15028973486486,383.4912523070303,-5.564304882232864,40.05781425479012,365.67937140043114,-26.87889023479361,35.85376898837034,290.2704994481325,-74.97801745855605,31.619213290483888
C2:open,272.57621166344524,39.04758090877143,40.40990289388114,350.12863295253226,4.403218947904305,40.48030297432243,352.54094137218334,-4.566686196853833,33.42914373683942,341.9509025425963,-26.61520456710099,28.95029336055027,271.19150274830497,-75.53691144945954,25.585900663021192
C2:short,1.7596996311081767,40.302226040540596,-24.390558531176758,2.2920157723618795,30.016235953293048,-22.020766010025746,25.872302475895463,83.40562566992742,-1.7975880064155962,134.7641370916525,57.02613356600599,12.988570456955161,276.50049840198545,-34.51781525833469,19.552772878724582
C2:parametric:-0.5,260.952717241717,39.42153241919335,39.84882374610146,336.72868354137984,4.639634913465783,40.264296787934896,344.0140084048624,-2.5128359991855205,35.52227933978644,348.0309625098305,-21.913489798301477,31.55811375023108,292.79981030532457,-72.91886067776642,29.163499480708033
C2:parametric:-0.2,273.6638580280758,39.727495094296984,40.74055951898733,355.5689883378405,4.569412334338439,41.263851800769444,360.04882910447054,-4.204501043611899,40.704236148367336,353.5155490422717,-26.35189017094045,35.65468177632933,283.3516465636962,-77.99141552241693,31.496687901385567
C2:parametric:-0.1,315.9205105024044,38.63232840586126,56.435060039066585,403.23766643002796,4.422225195864247,56.333920394215646,407.4590148420383,-4.011704669772449,52.2077907506395,406.12077538653193,-22.40772518908139,47.168917345460436,342.7868367402415,-73.29836164428417,45.075739744988596
C2:parametric:-0.05,312.37923222854994,39.4494081701188,43.86890758076524,404.5193202203201,4.598920863669447,44.90709918805924,408.9547871008165,-4.137852393561236,52.98403077077786,405.8161600532802,-23.29032024185762,56.4392408972844,331.11510123879924,-74.41583330161579,55.442029713227555
C2:parametric:+0.05,276.96278634828184,39.23054884532495,41.20684742011063,357.53285376444717,4.398648479066119,43.665530091641145,356.49794313461797,-5.707183094890272,45.371171923312005,345.12154618358187,-24.620744138255176,40.46473886669481,282.35434554248684,-74.53926452688663,37.86111539911792
C2:parametric:+0.1,318.00355724192593,39.05678125906351,44.17298121128657,408.35921766933546,4.40716476025363,44.169143079842215,409.40017056534884,-4.536153333319556,43.122453567595635,404.37395983438444,-23.924663808830232,39.758914580403335,326.24346154931914,-75.88565859902168,40.97332042970353
C2:parametric:+0.2,321.72300464779573,39.2780372071978,48.28309261438569,416.0650945855322,4.517671542549613,54.73587574446607,417.44408741296047,-4.37239235359959,53.47969244325333,414.07747678334067,-23.26580550405796,47.986416880964114,340.4025412800431,-74.89075214438546,45.89312542930947
C2:parametric:+0.5,287.0220062899497,39.037927746297655,38.74019822282807,367.9133918833522,4.310194498950182,38.71813199920079,367.049407977752,-6.4890239045779365,36.93818947262762,348.9713653703804,-26.785402305306796,35.75326763000932,280.7868306460376,-77.67789666490756,32.220581656811824
C2:cap_degradation:+0.2,277.1455135647577,38.84595158920301,41.35169637561642,356.4801269989217,4.298952692171884,44.47336372051835,354.9277152439143,-6.732984711193366,50.344137182151826,339.9958270086119,-26.869497707944532,43.314925071362964,275.19030721583994,-77.63738600100791,37.43249280014915
C2:cap_degradation:+0.5,275.4248565126635,39.80786140952288,36.43327660712179,359.666603457527,4.5737997275284155,45.39918888228088,360.97183968290454,-5.061766823873535,53.28602804321415,353.49616988369445,-27.167044587129457,41.56611114823959,273.6575557095696,-80.01960100609668,34.17561284797886
R5:open,1875.0191991548459,-8.782741656948554,42.625998498712946,1875.0340170227673,-37.41800840880936,45.343724221040745,1875.0357654920813,-59.179827548617524,40.90178577014329,1875.012175187258,-43.02955162038889,43.15327882733324,1875.0110592361725,-9.305762913826428,45.38323829128416
R5:short,171.86676840669742,38.58398653043336,41.60641272529319,219.24577490400625,4.427609813367557,41.582960427546745,223.2851154953795,-3.308704616141634,39.20268400872797,226.19473151526748,-23.29279332667582,35.22731561047333,183.92442532678808,-75.77526690996314,33.98395167777747
R5:parametric:-0.5,247.13168850950422,39.47613243689734,48.274259816781424,319.2313598633558,4.567527426414019,48.27115491404778,321.94176454729006,-4.459008191768441,49.72536180129868,318.4946539345872,-23.944243746568326,46.22534261676936,255.75359541062124,-75.79757870127496,44.38139964197081
R5:parametric:-0.2,257.7721541875513,39.65816072561625,51.18748228276601,334.477022050042,4.374734505800866,51.090197819297856,332.7312666086405,-7.028908990226091,46.0537834744306,311.33386124093056,-28.55515087312255,41.05856812633366,247.37827822042857,-78.04955501173801,39.33810780487723
R5:parametric:-0.1,275.54119782923885,38.86518054193398,46.242126089034414,353.4560604851607,4.293114640120223,46.75249028113226,352.54227668045013,-6.095518460428428,45.43757227360656,336.3834601396558,-26.77589952069538,37.95448742797613,269.0126927244784,-77.32824207793426,33.06027832804892
R5:parametric:-0.05,218.1306777056989,39.03278879911646,27.511372160748003,279.7727737434285,4.136808360194164,29.14986952506745,273.78896494510997,-9.352252586891463,28.489885563063797,234.9206062671889,-31.428471022365112,24.574298855836926,180.04079590758502,-79.1721793445525,20.713448376277718
R5:parametric:+0.05,319.79784933655833,39.58851995429417,42.86521628885534,413.9203158745735,4.576663946963623,43.36056457186122,418.67526665418563,-4.165355671533046,45.13615494631664,416.2551771655475,-23.402339763928385,44.73469881018933,340.80296555060977,-75.53182381467133,42.51524833954092
R5:parametric:+0.1,331.6889577754099,39.32766811995447,61.0660602918711,427.46908543264806,4.4652002000725055,60.96606179399542,428.74155605415865,-4.265264857537628,55.93365496052836,425.11400161278186,-22.61234671655488,44.68024493614412,356.83513413420235,-72.96056855583365,40.95304136096282
R5:parametric:+0.2,294.7993638976063,40.25965453054867,34.9778299457753,386.0715415484991,4.560467810425255,37.76186058695874,386.73894383575725,-6.051246004493037,41.63026049680613,371.34978284706625,-25.05824977286091,41.314132489677235,308.2694285346421,-73.20065708930984,39.85948153540653
R5:parametric:+0.5,376.56706092639104,39.07065048173777,39.198340207748274,486.6408491564165,4.576059708124289,44.437456007118755,491.77486088353646,-3.940556050283625,46.61855900374767,492.6973391002722,-23.575349518234106,45.420616881201134,399.67813254975334,-76.85056329931544,47.393389319302734
R6:open,1875.0095673421222,-32.68347431647171,41.302085764893064,1875.0051609084437,44.69082735857141,41.37115865743986,1560.3298284129799,19.350488685192825,41.45723499442062,1373.957864958194,17.50389681666691,38.68046302022721,1336.7157039212182,-6.284034012289757,38.45654370830023
R6:short,167.686733767241,40.14930496566654,45.12758279990724,217.60355320185525,4.510722585953646,51.006906335660794,217.7337776522225,-4.248159853780321,51.96305228891703,219.1207874359127,-21.683028810162565,44.571880730072486,187.29150750440385,-75.09938431994158,39.25584332871733
R6:parametric:-0.5,243.66429777023276,38.78325572482686,42.599829233101914,313.3694558479526,4.462618284671568,46.70889526466664,315.73660092618604,-4.111299641365564,47.583806458286546,314.81909484531934,-23.197873320705,46.26530539743159,258.69959963539367,-75.16881176962744,46.45660594351859
R6:parametric:-0.2,286.868689296229,39.6695228918912,53.11381897552866,372.03138261440336,4.534260009362465,59.29713414735862,373.1319351448768,-4.385558773006031,62.58659682768148,369.99496432312617,-23.28970590036963,54.69357515088541,304.90650428424016,-75.13206463272351,48.57218995128296
R6:parametric:-0.1,304.76200937327076,38.80998370086317,53.815971466113474,389.955138833794,4.370725638747207,53.771627775799345,391.1933834538366,-4.347987645799684,48.87123970308469,388.1734463568396,-23.21242716376313,40.9896547295395,319.9192379195579,-74.78401366790789,38.323906072971965
R6:parametric:-0.05,276.5664163347277,39.34888462016139,48.44777082573071,356.9505121722759,4.341842101297666,48.43859947359964,355.2796841047872,-6.451318089590401,46.11236433562018,339.7789199016605,-25.782825500963256,44.05224442519405,279.74020287181315,-74.84035905178705,45.25293853635671
R6:parametric:+0.05,278.94969286684494,38.97179380664321,36.57932758182427,356.8544287997103,4.391228594093386,37.13136253984822,358.0998327426609,-4.621247733567312,36.3933645909119,351.82723686526913,-23.970480896089626,33.88372964609564,285.91286968834277,-75.32744969588384,33.39627143466585
R6:parametric:+0.1,227.80405701053053,39.69279483878967,20.139307387763374,295.11871561153913,4.725915308848597,22.00548426954958,302.60119520181513,-6.803042747881086,28.111490092693995,278.4248882773684,-29.702957102891858,31.435645223853033,216.65442900862735,-77.92973905612882,31.92768013505138
R6:parametric:+0.2,322.53138310695283,39.69657393927602,42.89810170957061,417.7791656370348,4.652935793076477,43.823338589627326,426.76572392728303,-3.4192822621575942,45.68057100424389,428.1072036517881,-23.10353463935566,44.40702524748993,349.9728704625527,-74.98487425863706,41.44018090329311
R6:parametric:+0.5,388.434228136181,39.91155090487492,53.37685448669299,506.37611248978914,4.6025546717100845,56.15118241811648,508.1149304389811,-4.382489189891533,58.470086648744,503.711413721159,-23.521576619910427,53.03526734587703,411.3614300976476,-75.08930099860018,49.08897351507544
R7:open,25.88159623252078,39.49887351497027,39.50068939250618,33.42164829227635,4.566175194449162,39.65607445446333,33.980329837251695,-4.757227787685887,42.05867158767627,33.295030687358,-23.752207770953316,35.64399886643423,27.44743629354996,-74.17574055408735,33.19249219213483
R7:short,0.03622738060834397,-150.7686099898308,-7.737893599443154,0.057696575485218754,-119.93067723313854,-9.798335641571986,0.03569149906222326,-65.09631775254726,-12.234252187014233,0.06170779068013478,-97.40706362602134,-10.083309230554008,0.026394874306713764,-45.16082807600456,-13.699589788459779
R7:parametric:-0.5,460.80571106844,39.063874287742195,37.522775085385234,592.5487642634763,4.263021428271301,38.153778920052275,587.8261591322819,-7.17031411058257,37.33855559481772,549.217137796287,-28.52578956826541,33.515209823562756,426.83610901481586,-79.25328292438246,31.58758648708547
R7:parametric:-0.2,322.5047139985536,39.81175897420884,29.86771725316188,421.35158601157997,4.860798527176055,32.131519219732596,435.1421578753609,-3.562612855141468,39.311931130512605,434.74300590425366,-22.674557026683413,48.71927554213704,359.4015565600664,-73.67640035028025,43.22091292293391
R7:parametric:-0.1,348.79439839936254,38.84934725456206,54.56430730754517,446.6452258402983,4.395205509870802,54.58792657190854,448.58011859706215,-4.152782322968066,54.26332800829718,446.39873097661075,-22.60941992404424,51.0569958105864,373.3332758706932,-73.18736709672854,48.747277932464876
R7:parametric:-0.05,327.66064719109727,38.88267305733684,39.86428622411868,419.94724423813466,4.52614741471799,39.933431761532475,427.3225028615952,-4.10116676439702,44.3372730011213,424.91389259625146,-23.48046554706743,44.068750528672375,346.196723457552,-75.64128887321374,44.38181757640062
R7:parametric:+0.05,299.1472669345156,40.00522538899715,54.08683106258381,389.9833163315266,4.6042777415814395,58.487968652008696,391.2605241233475,-4.290041023517744,59.661815606990096,388.52389654490344,-22.94791666279934,57.23798300330452,322.1119230413628,-73.99244001035846,50.78864113828021
R7:parametric:+0.1,241.24151474665913,39.54346950812864,43.40187235880374,312.8926655205214,4.401889762126331,43.91770474483855,311.9817537570494,-5.919394663039086,43.39907229573736,301.65196602670113,-24.77743955191346,36.72837166569257,250.0325209164325,-74.58765971529843,32.02183074396849
R7:parametric:+0.2,237.6660834933932,39.1628004992666,60.63210106361697,305.2754354004892,4.394913051301918,60.30689410110361,305.3574328065836,-5.017783442320004,52.22791440671548,299.2910638196537,-23.9254212653118,42.453326653790725,247.97378581440645,-75.07627522891825,39.671237887896524
R7:parametric:+0.5,196.75909709219712,39.622126325572125,38.36093527951458,255.56579067321545,4.41468727716678,44.32056576283376,254.28834093663588,-6.853707219374287,45.301761873236956,239.67998142998775,-27.614186896988464,41.67909438070373,192.098767282618,-76.36762947229272,39.864657024410555
R8:open,66.64278175667883,39.64462632879668,11.685079150441348,86.14075549305058,4.532581767087907,12.257780553178028,87.27584511806346,-4.934059330987687,12.439298348222827,84.87240699625875,-26.05024405882394,12.56133172670773,67.11378446161565,-77.24796842607266,12.645010011696094
R8:short,0.5165728771123634,-139.39791830512382,11.502782913357985,0.7285394847050759,-174.06672574196045,12.153256201008046,0.6716366741321793,176.5298063992876,11.390450622550643,0.7021173026334584,157.73675237803866,11.82557158675823,0.5804789806092394,103.84268042386124,11.850183470035596
R8:parametric:-0.5,539.512836201825,39.61589952267083,29.865059090728387,698.6797239728422,4.708371088063442,29.93513234106051,711.6667174377551,-4.131618571965545,30.019229049112724,705.5841408546671,-23.320285238145512,29.42574160995724,579.3054008994625,-74.71243668253396,28.778747156385478
R8:parametric:-0.2,314.002071338433,39.64022824774521,29.535271503735913,406.2398796587896,4.459816150175656,30.676072170465353,407.2959286171837,-5.7145880029474,30.638422939925093,393.2505324886635,-25.103224988468842,30.065445935455855,321.6147615713178,-75.97028677667768,30.974389832905988
R8:parametric:-0.1,341.3225912491725,39.52358320174217,50.22976665039162,441.34251633734385,4.495525790908241,49.92870440457954,442.55752870463095,-4.361356656709763,44.8907783828116,438.1456860722327,-23.137406175683974,40.92447953082322,360.92661650678156,-73.83512936445116,39.440421351424135
R8:parametric:-0.05,299.64863982744157,38.88367724314205,49.8805858265196,383.31110974915543,4.316626531740532,50.23564976050194,382.3963781728461,-5.563525545843576,43.80375900189229,370.37882266279814,-24.637172674962756,37.55296412811403,303.7199985368467,-75.06611604404398,35.38991986139438
R8:parametric:+0.05,297.3294757741828,39.43808911805682,40.21732037277964,384.3276032373675,4.73258165840868,43.046606951305556,392.78547503861216,-3.968153192957971,43.82062670952906,390.60381179569697,-23.04112494206294,44.303406588847004,320.4448166002357,-74.07466669218903,44.06950441090914
R8:parametric:+0.1,299.5164455289815,38.66006400623356,45.41741747613013,382.44731045663866,4.344468213144536,45.41628927758134,383.5525914837222,-4.385295100721514,45.02657465632392,380.31658160554406,-23.292975318528043,43.4800132961889,313.3415840575309,-74.95105462932187,37.5508594559558
R8:parametric:+0.2,228.1786987481137,38.61251210347057,31.321769265270913,293.00877943794194,4.336349531741834,31.692885019105404,291.6938964861851,-6.30546948876901,29.81423640230993,279.09186359229443,-25.4571499853336,28.087811100315065,227.05981640753535,-74.92670963000526,26.571142070682882
R8:parametric:+0.5,216.2064205461099,39.36078453283604,30.398609132900148,278.33110700698523,4.322276301149012,30.39196898654632,277.177411342429,-7.00914211475743,29.129203407874613,259.65156658701994,-29.448238359788828,27.792006314336827,207.7142131430229,-79.07848756041972,26.074862232499882
R9:open,0.20516567129799676,58.04713848164024,18.927284361885597,0.23003451582212073,5.168746787655328,17.610889377007485,0.25139236080982297,-4.509479380795957,18.408528143970344,0.21751207580869197,-35.34658408023387,16.79943067430074,0.20097744041957355,-88.90390728083105,19.137618427925585
R9:short,69.54853339260539,39.67873212493952,13.608326915780976,90.51259719166113,4.46729402079122,13.651168090361692,90.13706691089591,-6.458979420844761,13.116710147606703,86.17027893271488,-26.744277528965817,11.560492679089492,70.7608913451653,-75.28572949477673,10.401123401930295
R9:parametric:-0.5,184.31052033032557,39.941304669060294,27.521466661234207,240.31488488248937,4.65158583261225,27.838210912620013,242.44136492442678,-4.223338343666653,25.820546567351986,240.915609034211,-23.115076140457546,25.385818492117185,198.18351499398716,-74.33546610578514,24.814124940316606
R9:parametric:-0.2,240.24326197549894,39.79220570949456,32.8015810734675,313.0430186001857,4.500052343005336,34.814952685339684,312.09115291658435,-5.730579646713242,34.39696109696939,301.9152924024386,-24.741258293006695,32.45286430381206,247.00599790458,-75.53361455067315,30.358455678480553
R9:parametric:-0.1,258.47745404194814,39.61262322482258,38.3658500154943,334.34637401255355,4.428268064158429,38.9366533940843,333.3945799145387,-5.593952658499177,38.72986469506638,323.48649788696895,-24.487429453996935,36.50150346708078,264.872453389556,-74.49390374003352,33.04773172793529
R9:parametric:-0.05,243.35012934334804,39.42306218110616,36.904753454211786,314.72460842322795,4.392853719397153,37.40466573442136,314.48938239542093,-6.1841397919486845,36.172306219028535,296.2295846891874,-28.57988722984675,31.402558878777043,233.02628920750777,-80.17610606251677,28.342701323599087
R9:parametric:+0.05,290.89663513636583,38.87907390770865,42.41849973920215,372.3575441738191,4.337214950840442,42.58853976871132,373.4998093779572,-5.741747970603621,40.00040709995561,361.07863580743447,-26.293872068433018,40.55850405729049,291.88730596191346,-77.10773860270695,36.243230293096175
R9:parametric:+0.1,338.40822552499395,39.52131803652474,42.17582042996471,439.2332769846668,4.556563897886967,46.704800206927686,440.75618087767964,-4.354837268281927,46.48464189651743,437.77135556185965,-23.238564592805695,45.05626344164823,361.1368408220204,-75.26629209277708,39.77718732923691
R9:parametric:+0.2,365.6127267815805,39.34203989262237,40.957180263364215,471.43544485929283,4.461577533936964,40.95708356353519,472.7186780604309,-4.407086707429498,40.87146607438361,467.7232235932031,-23.240083861232797,40.20342687254471,385.0669077028393,-74.3523128363011,39.94683916704409
R9:parametric:+0.5,415.9411493887066,39.42834891582443,33.037957143556,537.3894771324159,4.583293215394034,33.07589925001102,547.2938796720046,-3.587642111367071,33.60313781128043,546.9223992149068,-23.116995149807035,34.77523357394283,447.88864254509156,-74.5112718129816,35.771401083898695
R10:open,146.76256143447634,39.74661478151078,15.275499728511642,190.17834508168755,4.435120039134677,17.531974949580373,189.6710957332632,-6.0852307894900814,17.492717393160223,180.18419333570677,-27.42165751121514,16.87176613948245,141.90515495675345,-77.70028450968381,14.580875786104285
R10:short,422.23902331274405,39.173282744673664,24.450659763305666,543.8960138070581,4.329213808992236,26.639059742123848,541.4570898049525,-6.2903741023643445,26.577681390382303,510.9178118995234,-26.593554287895966,25.839568039205872,410.2185909441898,-75.54106905734398,23.802741216408975
R10:parametric:-0.5,368.6193527009117,39.938824772696606,30.912012553896645,481.4821554281382,4.6437186208382455,31.293210241558196,483.52678707404357,-4.187624876213511,30.851289483756442,480.6151655628646,-22.560604570406806,29.998633445470542,401.6624909067883,-72.95514266142824,29.738195211112227
R10:parametric:-0.2,339.1192644815226,38.63635411313042,41.197609321306736,432.89787906056296,4.339363327420938,41.19823759380669,434.0669120095446,-4.3810920469475905,41.61744888294058,430.08056929335316,-23.18769600440682,38.88929966888687,354.2208482819267,-74.38255411310823,36.77436999462694
R10:parametric:-0.1,316.9755459576739,39.131159340511516,40.05250740545652,407.4542829189653,4.4315295551536185,40.59380032328738,409.3046211111136,-4.284307502947276,40.8310178979334,406.06132361500875,-23.48576681396532,38.78343336924338,330.7797849144705,-74.88851483451357,36.48759882992328
R10:parametric:-0.05,268.7458364569677,38.99058126083974,31.794884340893635,345.33677040278224,4.370612128343719,35.80235286962118,346.61532283610825,-5.847029119105942,35.02455364014339,333.7522630260155,-25.165964390815343,34.09075841694357,276.7567740129035,-74.28869691777186,33.49313968772654
R10:parametric:+0.05,301.21968551726803,39.16550341476129,49.34066001346946,387.20010883717043,4.456217786522386,49.66186024088003,389.7717046761112,-4.178387533727599,47.94074528178404,386.91765511404736,-23.23129387653561,45.273842902543855,317.95512411064874,-74.74232786864007,41.655866468567474
R10:parametric:+0.1,293.06460725753607,39.153766986646744,48.125234564010015,376.635301616023,4.473535031270945,48.11531975380881,380.5014201871001,-3.8298779780573753,46.398458301377076,380.20704458224924,-23.221333369389995,45.518380923916055,310.4048413358217,-74.8822856189538,50.593427557980874
R10:parametric:+0.2,234.48767217497812,39.07489912590762,25.207779491582308,301.3595530545359,4.256696057299405,26.319300841967546,300.07247892344407,-8.195142058724038,28.76472906463298,271.7111771449996,-29.375725447019164,29.699196676611283,213.92483821090428,-77.81452990304437,28.258921757058562
R10:parametric:+0.5,284.35941710085194,39.697326730570936,33.49465793830211,368.46358460792385,4.519147721745921,33.494043565586495,369.5109839680968,-4.436974390177509,33.5310434849749,365.31356513641714,-23.443725900872018,34.178422119074185,298.32025448912583,-74.56662470755082,34.85869620508055
R11:open,464.5754670482428,39.65421885429952,25.8230070684111,605.9265573391694,4.697955349877969,27.689095594001724,611.5266516932832,-4.1941778490356025,27.769432516909923,607.3686666039778,-23.314735833207788,27.709837111869096,494.83080723866755,-74.67565509001977,25.92612610132175
R11:short,113.03387534336255,38.77323931559039,20.691676618625593,144.39585334919676,4.166564570388014,21.713947451601356,143.29424051596914,-8.28687347161593,17.811405208469345,127.50595560561216,-30.578382044468448,13.545371332662782,99.13752623807721,-78.70181753578248,11.018229372671842
R11:parametric:-0.5,263.0617563224175,39.02621955731712,28.402277749342147,337.67581676111956,4.4379424294353065,28.39145319669249,340.32584067148946,-4.284287403522515,28.046366991548346,337.2876218616106,-23.451503383603853,27.760910013112955,274.99598261923086,-74.816407307052,27.26141973023366
R11:parametric:-0.2,254.25605686332023,40.01332886978027,33.446708518036125,331.30137118504433,4.725834258645615,33.14774359442033,337.7209821034534,-5.6360771403533185,34.85506457373504,326.11946412502533,-25.195792004839387,36.58203367173397,270.21511179781317,-75.28504171136265,36.64156052280823
R11:parametric:-0.1,305.8449190329343,39.045383502066386,43.584298062024445,392.6254120232192,4.50875742701545,43.55035482658613,396.9663012684031,-4.292865362768517,43.52435157092974,393.46111078387474,-23.64703775507857,42.87884465863658,318.6702839438946,-75.36421100275705,38.07262741238398
R11:parametric:-0.05,275.83064905048224,39.973314680778394,31.411700916869947,360.4521947168844,4.71011655852013,36.5742485099494,364.561536205206,-5.41889705020098,44.34140746777457,350.8156196330155,-24.683940659796118,43.294120605238355,288.4815775565104,-73.75212694156863,42.50284704927196
R11:parametric:+0.05,318.2112404730135,39.45648723357338,55.664212940618,410.89760613621337,4.55708484817416,50.80336660715976,415.7410726589336,-4.2187707845450095,48.42858300827548,412.49582970797724,-23.439251338507294,48.23081292238157,336.3994112062391,-75.12172881838006,42.01646077565954
R11:parametric:+0.1,284.90881603631215,38.96349827019043,36.488666970183246,364.54579705116186,4.395276259570203,37.06962539324314,367.73113056748207,-5.3172127305705015,36.90266040982319,358.91031886457404,-24.766139976891594,33.332734462257704,291.59800164380505,-76.52564932709657,30.82489400944735
R11:parametric:+0.2,325.88638633973056,39.43367951838347,42.0164799642843,420.69253244529335,4.501853555694926,41.91711144999604,423.9356830601628,-4.113040450861924,39.566520436859946,422.0545481342309,-22.96647968134087,39.06171515995064,350.14393147657165,-74.52359856872053,40.15492992283953
R11:parametric:+0.5,355.8765377716062,38.268937620505625,34.803336844178396,451.9813227928745,4.286089495964953,34.80210829961412,453.1514178056292,-4.374905438302566,34.756507046297074,448.7827347230486,-23.128313239952007,34.14038665450323,370.27373399969355,-74.08203027182519,34.3477902491844
R12:open,321.86001735630794,38.102608619348786,44.66655252083882,416.30861280803595,4.382264279882124,50.351605490863875,411.0317540182566,-4.562998509311673,53.055371958901624,409.16205868198574,-22.732617742631035,54.09669698628692,338.5116410276436,-73.51412282360248,54.043178617979294
R12:short,278.27555158471404,38.828647539928916,45.41699764459782,356.2018044869054,4.552777195885501,45.33576366444931,362.1324364167433,-1.2991884178635094,41.12518966819181,392.8491013187282,-18.23075348726068,38.36608087162851,339.2300280800713,-73.05967262483817,38.29946090058215
R12:parametric:-0.5,282.821692061268,39.77757818027742,42.08226793362738,366.34195700036264,4.535719174972608,42.67211773846384,365.44638333275645,-3.937192181493373,41.58119057575606,363.71864796048834,-16.308984763856376,36.064832056863956,836.4393249094591,-55.871422059278764,38.2047970323424
R12:parametric:-0.2,315.000894798199,39.30877625998178,51.183349526569664,405.91146613294916,4.461207720681372,51.18096223792857,407.5002197357343,-4.311209049962547,50.957471209593905,404.65094574558566,-23.229920398785005,47.771968367932054,332.5853992085199,-74.88988278312894,47.549595262092915
R12:parametric:-0.1,306.90572437015504,39.696488278226006,38.693948485565876,399.29650462963474,4.840622226486512,40.180555409108585,410.6279967218961,-3.8219337879742663,45.38695824574387,409.60892571976484,-23.21564712584442,45.08689401441174,335.4008000153287,-75.46695768699149,44.25342437384405
R12:parametric:-0.05,237.4027926862741,38.56229366506725,38.423558243185596,302.4397320245527,4.205857620213295,39.49068958067538,300.8348583727817,-6.754503658988034,38.273993378867765,285.247902232581,-28.530928147762193,31.43551977722857,220.50090750961303,-81.67398627739529,26.24114738297048
R12:parametric:+0.05,297.3588568621147,38.802841220326314,36.96061983250486,380.6567185932158,4.4025865964346895,37.630893321997405,384.1799190971341,-4.2235015756853915,37.54586257419977,378.0027190682131,-23.585238506398447,37.31860501514245,310.632117963797,-73.91882176594,36.75732518209527
R12:parametric:+0.1,316.49217157130295,38.88653799228733,52.83518368962744,405.3450163536513,4.433227122743668,52.74484349100546,408.900050479119,-4.108298036059926,48.864475503648165,406.5409345154821,-23.005822986149337,43.52702614944418,334.9970058142145,-73.91800356898436,40.80649284511394
R12:parametric:+0.2,254.77076110387276,38.85734764864463,29.440106609835965,326.7173427905319,4.183271118561254,29.977480905918164,323.28919121596874,-7.9784784305396,30.601652762856595,291.8459422317298,-29.31044605128033,28.633818809420518,229.5283755227405,-77.56972326452966,28.90720279321841
R12:parametric:+0.5,255.21851339403423,39.57046598354846,25.898819415513056,330.1548107535208,4.213003818664026,31.4438009314744,321.79619105227107,-8.869474573271038,35.57964470941683,284.51546027479554,-26.240547722619223,37.13150140040496,236.56137497128162,-76.79004761509493,36.900894171630526
R13:open,238.9945749520451,39.96080537097748,32.72519343908817,310.78675348823975,4.245460342024159,32.70786878529337,302.8856463433283,-8.337268027790367,30.42079031117427,288.0563738610059,-22.737369830577,27.883983146099517,236.72408964262087,-69.22893635065957,27.925401755963005
R13:short,250.52717209709476,39.13032152188331,36.31487314597994,322.8587502217807,4.25902662528716,36.83719837215166,326.20583050804026,-7.104454546803728,35.77897239409913,323.17027347643057,-26.153119431419555,32.73415876149774,262.32877632120517,-75.52600351815053,32.464844941281505
R13:parametric:-0.5,264.3335704910152,39.56517975570072,26.80303709583675,342.1985360778884,4.020855603888327,28.492650691000314,327.71368366422877,-13.404764152730408,27.775597936418414,248.24174646284928,-35.02147000546428,23.632720758574862,187.96253420090048,-85.44231348847667,21.035133919929628
R13:parametric:-0.2,289.5957641598324,38.88443451097447,40.68720401745244,373.19783308221247,4.360637500302612,45.01317991202275,372.06048876222275,-5.7029424988109225,49.3014182527068,361.78358941669154,-24.957034174104912,43.985912131405456,297.027651848268,-77.18055908312328,38.92096070750228
R13:parametric:-0.1,249.7170249666185,39.32581070937996,47.88787679400335,321.8253936786302,4.259313623907577,46.39153676895533,318.13873177949887,-7.952132467922083,38.78547719302066,289.06003460552654,-29.71203445196435,34.267264363007754,223.61225396777297,-79.26562098060025,32.362343143749335
R13:parametric:-0.05,280.80580621492965,38.78226818330929,42.52839456909534,358.5152342743248,4.271646537068134,43.08868080327305,357.8739470085421,-6.012508847652093,42.25836761269463,345.2684180493693,-27.36675893063748,37.05757020643959,276.38367664691367,-78.80706909057054,33.83475011208619
R13:parametric:+0.05,240.33106002086748,39.54493851570281,33.59805963270912,311.8914047801093,4.315463621358743,34.66997874355452,308.7722408861882,-7.7511245922683765,34.22284654429312,281.59255805772307,-28.267324123108722,31.484063028009608,233.2758665422685,-73.72926715497525,30.944209473592466
R13:parametric:+0.1,289.25458535678376,38.995399535654194,63.49306103095492,370.9077070889977,4.3036790482674485,59.38804463643129,369.67559418834657,-6.009127607273589,47.91252479315457,352.1470687096284,-26.000211805614107,37.82475902427673,286.9591208249793,-75.77266758771364,33.79392364652469
R13:parametric:+0.2,305.7437654532498,39.352193057871894,39.68393244098159,394.12811362272146,4.474479483178596,40.247761451352645,396.09801159583617,-4.2547267278318195,41.244754586132494,392.9974176443846,-23.10316868583922,42.787472816906266,322.88174173234813,-73.94989553957058,43.54311802678605
R13:parametric:+0.5,326.0434853989752,39.81110154602597,40.24843429496663,422.30382119826794,4.179440379798605,46.126543745587725,406.1042311864188,-9.843710230510597,45.10443892064855,354.51132637266767,-29.91050095147896,40.022722509284705,287.3367582263498,-75.57723214957538,37.264978004206306
R14:open,283.98411820817296,39.73707786426348,40.81183473533628,368.20757180474715,4.4327982469253175,41.36583154567123,366.7944332712315,-5.971899218078258,40.22406903215382,352.8270720139129,-25.426347138160917,35.27026227079008,283.08088436505795,-76.30966930012177,34.39024485895913
R14:short,320.5937335284382,38.536722872860636,56.883727395976095,408.67837100251023,4.3281934865751515,56.889746727041214,409.6530458204885,-4.457103826090024,55.69284594692328,404.67375087624146,-23.404847114839328,48.163386766232634,331.61085472296656,-74.52777690895309,45.79649042367511
R14:parametric:-0.5,279.5422514025675,39.475903467995884,39.652445637734054,361.1916487876923,4.36127120977138,40.1484538777377,359.3717448669028,-6.513606747132866,37.00704902241079,336.35959880990583,-27.30345122306762,31.594012096297813,268.9054869493318,-77.31692952559155,29.1645431128687
R14:parametric:-0.2,285.4105932994462,39.30843123061826,45.30308994132564,368.02301256212706,4.3158393463096765,45.84116860173101,366.5133987719297,-7.049141660825212,44.338351879700845,342.88299759442305,-29.6070406882069,39.17878275266058,268.3535030431751,-78.6803844205235,37.7990753574855
R14:parametric:-0.1,285.3717936942996,38.98233357146339,47.69004730787901,366.8584628580993,4.319551178852163,48.171775998800456,365.4847793313444,-5.95528596020698,47.78332026291352,350.7163858357938,-25.50741867686842,46.952456640706274,286.04114977684594,-75.62728059736123,43.98632693037944
R14:parametric:-0.05,251.83886233914862,38.799136109547234,28.704670381799446,323.96101157559644,4.350022588197952,35.228813520809965,324.3386071174026,-5.787492477967705,38.32712011197463,307.7826203965343,-26.563052724518332,37.086273664561524,248.04317641942546,-76.92046383009605,35.651287973372774
R14:parametric:+0.05,320.2837028984245,38.65279656557398,57.80590940935278,408.91145728011253,4.346112505869668,57.800378880594195,410.03598728297203,-4.4042564919101235,55.16675264186563,406.05908785301125,-23.307022625075213,46.895369377009544,334.07433080506155,-74.74584930172415,46.44288554423612
R14:parametric:+0.1,280.1583511880401,38.77261829934216,42.100395750644736,357.9059399054241,4.309936138255421,42.65463463656649,357.813168850985,-5.441222063402641,41.78580388613728,347.612357991974,-25.03359157034823,37.61142010987135,279.4172470744386,-75.69545058679775,35.81577967279899
R14:parametric:+0.2,207.73333341684213,39.105298592035005,22.12096740701567,268.80144958933306,4.072997566683448,26.5771330539828,261.7389798301181,-11.45125428482271,30.36613962129612,215.31907185955987,-36.064395820466785,27.155846223080317,160.59115494833065,-82.74132683472453,23.4673678158406
R14:parametric:+0.5,255.13730546315227,39.17981808878373,35.027522656367616,328.51960037971884,4.325494674998714,36.10230570208011,326.5323628950593,-6.309388618667295,35.34737991646571,308.26786909438556,-25.74161551860958,30.63671959174568,249.85367114786575,-75.20866414615546,28.793371302352732
C3:open,246.56391575974868,38.42493690343893,36.85443951522702,313.8881365620458,4.098752631505015,37.86985358274615,309.8294187278242,-8.257786116994117,34.3297225127996,282.07739585191456,-29.167315973486257,27.467826487433463,223.02477788776656,-77.79806512981004,23.89466130050723
C3:short,314.93174011848294,39.30968758156503,48.588540701836926,407.05964516649806,4.502170644898764,51.09311620622908,408.35213312360656,-4.43739401346125,52.00851183667856,404.8498838587428,-23.565112796822305,49.47517085288843,330.13671951904246,-75.80074012562281,48.69146456149553
C3:parametric:-0.5,315.2473519762084,39.99742422558699,60.19772696719147,410.22095177966605,4.567033577712872,60.18534177181725,411.3724575840844,-4.424413886833204,57.429898973633655,406.7445207565042,-23.429501473419652,47.23034680729301,333.24886329288995,-74.6340825366806,42.987437179283546
C3:parametric:-0.2,316.9042752424664,38.78369758781594,57.68465618883333,405.7083678656095,4.5639882786198385,57.78825329440677,412.841812349102,-4.130977523417542,58.408470620430194,410.2437913515783,-23.072197919762594,51.47106978648255,340.30207019245876,-74.93088292731959,48.376359539532814
C3:parametric:-0.1,303.729275480222,39.1686701966651,47.62920772654779,390.7783715551417,4.463557631908964,48.087332689608665,394.0044206889565,-4.175519772903167,44.600979306853375,390.1991305258576,-23.41979792875006,37.622933580893246,318.3357659986675,-74.6112746059174,35.678804148743204
C3:parametric:-0.05,315.45912869252356,39.51107395287991,43.73269709774465,409.48286568902097,4.571801522869563,48.898295621182434,411.03853103501154,-4.354142752915873,49.71454873731566,407.5392598278577,-23.230461048174337,46.36301364567332,334.5733209949201,-74.53540805791803,45.33061634059132
C3:parametric:+0.05,256.63239311357506,39.115864757806804,45.22695235864612,330.18851932175494,4.377254215347087,45.21525354959746,333.27621469475724,-6.66237098752689,40.683037764413754,315.355611977577,-28.637868793691446,36.55954062597919,250.25637141308232,-77.66005652658629,33.458421769102756
C3:parametric:+0.1,307.52014778524745,39.064350329433495,45.39074259029652,394.8267305612057,4.451681164461182,45.41630651345426,397.7013123414654,-4.502781651095065,48.27218685291102,392.21890170209076,-23.61692538063874,48.056807209708765,320.02285168129356,-75.04129020250947,47.90343917021829
C3:parametric:+0.2,321.65811426567916,38.651326911444485,58.5935808961054,410.796662214202,4.34950174063991,58.5633976011595,412.03363766142695,-4.323935562768307,56.39356788607024,408.8676543924698,-23.034483136264605,46.565383032882366,338.9520563585802,-74.2588835163259,39.677393990732426
C3:parametric:+0.5,280.86832465297175,39.02501989817233,52.44589150938159,360.9799040375915,4.267451752490459,52.9329763393087,358.9424519328393,-6.96494632836655,51.11637843175795,338.32719767458286,-27.47177586387668,45.801223143169764,271.4147955134054,-76.8280736707871,44.36417091350183
C3:cap_degradation:+0.2,274.8806757205566,40.07388785783952,40.16965052522811,359.76698265732466,4.715264453667802,46.06288038617892,364.89112281699875,-4.726273206718075,50.3618892684853,357.08009134446445,-24.674524232156436,48.911223391033246,292.7574842412353,-74.56911675436844,45.292712429654244
C3:cap_degradation:+0.5,279.66990239458886,40.07760447882216,39.85584343131765,366.01919677837543,4.53588047986076,48.02539443899212,365.4370748299898,-5.977451483342424,44.63496567820505,351.12502120746274,-27.161198622773114,40.48543623800406,279.08155603079746,-76.94602536024291,38.64702689698348
R15:open,275.090005360925,38.95862415573688,32.73578076070252,353.49468768300284,4.575443517992092,32.750967007425146,359.60075948981086,-5.570574247960444,35.43941856776543,345.14091701788686,-25.920686997935114,54.298964335819555,278.1357875727616,-75.46410891524204,72.19962686786829
R15:short,317.2723187275865,39.47406496103674,52.36194699016285,409.7455463231094,4.481794014607894,52.142625299960656,411.1250987580219,-4.286729029965253,47.59565739517248,407.5118467740666,-22.876413467099017,42.72820417564223,337.3550577828681,-73.18614969538959,39.63690482292763
R15:parametric:-0.5,245.3271945415971,39.484210003307155,41.72947497906259,316.67166702839177,4.325808835754913,41.92478142852754,313.55484257141137,-7.186170074545547,36.88232440772476,291.4053765418745,-26.891996826402178,31.61045549108973,236.07287354265833,-74.64026007163807,27.34742422788089
R15:parametric:-0.2,315.1769464620832,39.05447952975723,51.46204145992578,405.03823171416457,4.635947026021628,51.60380850332782,411.5076066926879,-4.162652923125177,55.411446693684425,408.2824873030746,-22.980643774904678,48.044896983625655,338.0600464050359,-73.88267348228158,43.86200820948416
R15:parametric:-0.1,311.9401768310677,40.17128549983315,48.089192046683905,406.8753442545004,4.5983807368345735,48.07330784850505,408.3992849507216,-4.325600551819973,45.588450907415016,406.0241898899053,-23.241046672508226,42.0086089119216,334.50044828501916,-75.3911855061383,41.31495270938676
R15:parametric:-0.05,270.2879582003089,38.99011046319849,37.646994689000934,346.21934631799706,4.399415355368328,38.23232357138775,348.4021665457416,-5.425379238435372,39.31592618557555,340.0429381484737,-24.256799114156838,35.626694089317965,277.30288945530856,-75.30088371965942,32.85751481181993
R15:parametric:+0.05,289.66495776322887,39.05823666745284,39.60678122804078,373.16775946314067,4.384799787865911,43.036203919916325,372.26343264772333,-5.835158500714551,46.28888448207324,356.11159276182764,-26.16078218455698,41.317953256844696,289.7093162413166,-75.18720185946896,37.94696532148958
R15:parametric:+0.1,305.7867776747697,38.91118543626942,43.44140963814229,392.9588501095944,4.49522221730035,46.19096578259892,397.74897072933936,-4.395025785553617,48.27447256508743,391.41841748308593,-23.934221563295072,46.50822023784488,319.025309183432,-75.32131474047492,43.89060223375526
R15:parametric:+0.2,309.65019047039965,40.508037426613605,40.355608111493,407.97574616345,4.757467413792596,46.837145869311854,409.56741199091556,-4.366055897518036,57.35909913883829,405.7216949297764,-23.34873868424126,55.7201893412209,331.1603301130905,-74.44469413091903,52.473037241776865
R15:parametric:+0.5,289.0554183765889,39.0178920900667,38.3781019988946,370.65819198878165,4.348984917467042,38.35275646197497,369.89249539017266,-5.477219996606761,37.05167531540728,357.5658765449673,-24.53511741729421,35.60291907660149,290.28827072694236,-74.42536209379281,34.94379655596575
C4:open,1.5942796442436686,-0.060396244608693694,42.50350383326548,1.562201343129221,-0.6652972323471552,42.531510603644605,1.579306632085235,-5.3104085513472725,44.555694932988075,1.5594926568189276,-22.54161996569008,44.997366755608965,1.3005512036222273,-75.29536811547241,46.65967915391969
C4:short,314.473737125399,-0.037647859216764744,42.24653353282365,314.4637058877044,-0.36548442538845366,42.23815686225894,311.54394291672025,-6.977429208896752,39.88078543749815,292.7692521710849,-26.72579309351775,33.092498441431204,237.1007481373403,-75.55310776963586,29.157015034168992
C4:parametric:-0.5,216.336972268922,58.670533325975214,52.253900387978064,410.34767839631104,9.100495834235888,55.33054143128662,415.7230073062923,-4.142595406742302,58.805055159900384,413.1134990628381,-23.308123087158048,53.54921404036069,339.7827838557922,-75.7053978397824,49.914725319812405
C4:parametric:-0.2,252.14359264135155,46.63340802349119,45.584058306921904,365.4534239112528,5.784736846975777,51.45021363505934,366.41681971756,-5.0355179597792485,47.9156255561107,357.8738156310236,-24.331501741956423,41.848476117649,291.94722140762514,-75.35511545845617,39.528488080529456
C4:parametric:-0.1,298.5481820873016,42.742546273627795,48.045823536665615,405.13230236032786,5.079214605779004,55.508246604158245,406.7987604580126,-4.208943386962177,63.67567179853817,404.8082633250135,-22.670042171578626,65.7694849068357,337.8896273127992,-73.76194647782032,62.38521208911189
C4:parametric:-0.05,311.559622515569,40.899400852010835,39.39770715061659,412.3254310659555,4.772729316580419,47.34844391047897,413.80998769283,-4.430308213529286,53.75142613019157,410.01700548226637,-23.68066627599513,52.00373069343472,332.450822208325,-75.81804951614376,51.98175131258584
C4:parametric:+0.05,301.0466536006319,37.43235250949858,42.50711109002607,377.9248707651975,4.3419476719374615,43.02743712098902,388.1383668239723,-3.7632678450238037,44.30051808784795,385.219387717019,-23.342382174605014,42.554935321311106,312.3662289092404,-74.2097192260108,39.57530772049854
C4:parametric:+0.1,281.80640106339104,36.57310075517161,36.700710278841996,349.94771099474946,4.143942939970569,36.99076195064517,354.20857894895863,-5.420889490587127,36.11826747870738,343.9201785703385,-25.622448152047287,33.010455160847506,276.2647483027593,-76.80107232921165,30.625045383167162
C4:parametric:+0.2,333.18899299300904,34.47120857890793,45.722834314328445,403.3862843793895,3.7200820097802554,45.71502413626143,405.67306770530024,-4.307723309445454,44.536220724945906,402.3323053862943,-23.566021422566777,40.29693049570987,327.17512825114983,-75.2183731536118,38.27625797431026
C4:parametric:+0.5,364.3913340180444,28.53909149041917,55.96797326738138,415.91185065327994,2.9596356893330986,57.09662802463495,416.4631213310245,-4.423085826216116,61.71397701160424,413.1029304861428,-23.096286238738152,56.831197731614864,341.6538823516202,-74.3303380362759,51.46865912557139
C4:cap_degradation:+0.2,253.2737878226569,45.412085693394694,39.50812749210461,358.8985578704401,5.466962401055862,40.280273063755246,358.33151368269654,-6.175418364807736,39.270946113315155,343.90965314175685,-27.032358027165394,34.87488824911955,274.05269306448673,-77.85564676207937,32.72600104902649
C4:cap_degradation:+0.5,185.83785743231107,57.48983282896397,36.00265583014385,341.9666182945614,8.791569222719302,35.66861415969862,352.4456908727053,-4.365097332366011,33.1801795671023,348.2710310508295,-26.360928131291615,33.64054030153123,278.1153083714332,-80.11763135325661,32.307824084270734
R16:open,412.7357823315373,0.15273023868613023,57.16487836621275,412.7070702610925,-0.21978208056380938,57.16247938172086,412.4009106701458,-4.760579644609727,54.92225274944723,407.29951925058947,-23.945300644920803,48.08835895441436,329.01964394122075,-75.83525996586093,46.571026168821405
R16:short,0.031946184531582954,102.31162368027462,41.88756170964292,0.03010398771971086,65.35539729065843,42.332546918319466,0.03533675681566646,34.451376239586054,39.5875830013826,0.1397748744119584,64.83058105525413,42.71554480699947,0.3229649495827907,12.07683082248639,43.73365075672675
R16:parametric:-0.5,161.24340417602457,58.15746673169659,36.51711510012174,302.52529399634176,8.694387314908663,39.21410626978359,301.6099904131902,-8.418283129638159,37.05514454788398,272.4734647662605,-30.59288730055297,30.367007373867168,216.38494961212794,-77.14420353972871,26.944898364385693
R16:parametric:-0.2,278.69295931742926,45.60542215396414,48.54375115318944,396.27601145227544,5.605876127327005,48.496591558230094,398.3989360980488,-4.493417824930623,44.86476577471899,391.4020710635535,-23.71526104499,40.95059533992302,321.8610218937538,-75.04439840130041,39.81177915842842
R16:parametric:-0.1,305.0869475758713,42.2749536825511,49.4922434047384,410.6411067823768,4.9640195531488365,53.40284163875876,412.0682404806363,-4.347810152487402,53.998239568880734,408.0270611869851,-23.14263196189254,49.086782470043005,336.6867936704789,-74.08259370947911,47.89970009960372
R16:parametric:-0.05,308.70819835623485,39.842346821810104,40.656006297799635,401.04664294733914,4.83478222009596,40.26070958616775,412.2889345171623,-3.8461252723076926,38.9996105692804,411.21707310765754,-22.960378465149578,38.49008728672502,340.2548908807013,-74.85492341535749,37.82519132646112
R16:parametric:+0.05,264.6879505554255,39.137484593035055,34.13784500321266,342.1128339484726,4.634433102564469,35.76730165561747,347.3050525063433,-5.342258172901067,44.06693051235317,338.39867909265905,-25.951577139071368,43.441154886030546,276.6330990293985,-76.41994388088474,41.66765210739894
R16:parametric:+0.1,298.751217007914,36.86286655581767,39.43321835306266,372.3370143335241,4.09359355454285,40.39946093226364,375.31793101213816,-3.967504611853248,39.53410169796536,375.3277851963532,-23.052658329145622,35.917097623177604,309.4085441488403,-75.15923741106297,34.84028642748248
R16:parametric:+0.2,333.5176959614139,34.88926862387269,44.62120270221976,405.8181510113954,3.8277029768249413,44.636555906155735,410.0960848831587,-4.272439489704741,45.64872272150012,405.6314527370862,-23.48664806794488,41.585112558788616,329.9868820158755,-74.48507510821379,39.779604707867705
R16:parametric:+0.5,356.4834194894935,28.639067250380798,57.840196448490445,407.27266712373876,2.9849224994835533,59.257693362090855,407.9489819314799,-4.453647794868551,61.370828103140354,404.38370171961117,-23.353604107609126,52.236059884849354,331.17668092944035,-74.81585805575725,45.554789697129245
R17:open,6.854192068276068,39.61640215341267,30.662456088978317,8.948295047547926,4.3649333087571005,34.87454163695183,9.002717991225698,-4.938270268367999,42.323286345323964,8.797838925327698,-24.121905030712444,41.142058953984105,7.2409095458956525,-75.0842568250527,39.766648198837004
R17:short,0.049682118302265724,6.835785104309961,43.1822668817459,0.04316394571780671,-34.722001350539074,46.99430230430001,0.06909470495003736,19.47010981337246,38.45242446584395,0.03593463600844906,-61.07855654908492,39.678412181399835,0.040682252042712204,-85.47032469093732,41.13480287453583
R17:parametric:-0.5,535.8797580789965,39.45650884482339,41.664481264725026,690.7763832178296,4.449552133538394,42.25749663875315,696.056772878263,-5.960159578795181,47.56834246255163,670.2422384758945,-25.283804962085583,45.71882429513738,541.6022689559788,-74.79503298376193,44.655120758396265
R17:parametric:-0.2,320.14590785185,39.514929881982134,37.00760497223966,413.96082822188515,4.556604022397503,38.111141243234584,421.56528841897637,-4.4138170320432994,37.777343379503456,409.9356818819755,-25.658454165994485,35.46761828147374,337.5221992253839,-73.90412266703427,35.294508699427645
R17:parametric:-0.1,332.6831599663942,39.42281660678529,45.27477953793623,429.1252197306469,4.4643807393572335,45.847055052550004,429.894493932958,-4.598330459488203,43.51036581852995,422.05893923385474,-23.500668900610584,37.81848709669774,349.75539640950325,-74.08134772051285,37.80594634637818
R17:parametric:-0.05,306.0441811097892,39.53806254884114,41.85145869604068,395.3717409568965,4.3840823513865494,42.42005519796869,393.84181834657824,-6.459478032975831,41.28658206353791,372.2265734018133,-27.203190169377418,36.414838750350626,303.6468895632278,-76.3583524878478,35.30649163914086
R17:parametric:+0.05,258.30142170673247,38.98307539884101,41.68039381584618,333.13143954591766,4.4169711264951035,44.844643300489544,332.91125811279807,-5.112265103171013,45.60215544218404,326.76898666172343,-23.459632657067417,41.04861212018299,270.45451056494517,-73.77136142844947,38.972996538379626
R17:parametric:+0.1,253.55404399989865,39.32417584237068,46.27830498823869,329.0961053786425,4.402880797779747,49.734087653932015,327.7099949052084,-6.430998322009907,50.628453102471,313.08787225430626,-26.431579840491697,43.71134660790538,251.7962172127879,-76.49584830073853,40.063774978288706
R17:parametric:+0.2,267.38466503044646,39.41722725091256,60.03613318801895,345.14100230103253,4.474022842641622,60.031038494839365,346.1474849176476,-4.339562932018621,59.21729153858597,343.97476133272454,-23.154835291041096,52.72609180403143,284.53984877434226,-75.07632816557769,50.075973044508785
R17:parametric:+0.5,210.0594465822102,39.00611338504185,52.59987365706929,269.53591805219395,4.38160107066877,48.61477912743112,269.92630216948555,-4.78484350362318,41.774145924490604,264.41144471169804,-24.33063339817407,36.89080412423135,213.7209755332176,-76.39247493089529,35.652676029063514
R18:open,0.027607337051746766,56.396237851310424,39.081325782397805,0.019267811491639114,23.720749066316532,34.02847944948116,0.051441758268422025,16.904774259514536,55.162795693133106,0.04793660299145518,30.528940219550968,39.70389718572281,0.0355474040479355,53.13151233272034,40.933092998316056
R18:short,5.119470706339308,38.967708373609845,11.523598607064189,6.540603386014865,4.0339417092926055,11.47189925078941,6.568703242559948,-8.896485708256154,11.732474446231063,5.54902230359796,-33.158326896380096,11.15648441037375,4.2260297241915294,-80.60269287190408,13.599788875491521
R18:parametric:-0.5,158.64872546485668,40.27059950274733,44.10347549103158,207.97094199449054,4.734748897941211,46.44810033101227,209.9563431518212,-4.262681817823592,52.8770339406125,207.89247191274336,-23.3955611477749,49.90184002827317,169.10327363078295,-74.24383578980161,46.97398918936736
R18:parametric:-0.2,244.37020026918069,39.643423456549634,50.99251651766375,316.40280716967504,4.511344632762375,49.77047818643061,318.0003728610965,-4.405298321511878,42.77391665123743,313.10967173696525,-23.623604820772684,35.62577474348343,257.39107645283957,-74.36016573974428,32.2505157550214
R18:parametric:-0.1,264.6387052703361,39.0201084624527,39.104818389864164,340.9284288499649,4.409054121487074,41.68781504409373,340.770332845067,-5.095521880022102,44.67973680817413,331.7907684854562,-24.207172099306707,41.569256373596915,270.8262444126023,-74.85263362713603,41.82886619194424
R18:parametric:-0.05,254.3440067169494,40.21500107714766,32.517242965227794,332.2664248564707,4.585247787980489,37.120238501917925,332.1573549695406,-5.120200688139143,40.65578062672478,322.8270526872203,-24.26150351240267,40.41247145034578,265.6165470859414,-75.43379346532807,40.873119528510976
R18:parametric:+0.05,302.1749217305375,38.46732258320483,50.47596564239308,384.26546921379884,4.265382087426465,51.0334509770569,384.26550260407544,-5.326236187155061,48.83646156818705,373.07329259354344,-25.616987048914286,39.58938455148339,300.64612314610997,-76.22147224391153,34.08788051235183
R18:parametric:+0.1,292.69617137313537,38.90314389660671,28.355754951023854,376.2216227020083,4.470905303249447,32.69638227035331,379.9601469044333,-7.022495897744268,36.646735559485215,353.8499263639218,-29.75540540544596,36.19512508368703,273.64841491554273,-79.73939654402749,33.895268334998505
R18:parametric:+0.2,364.4764048420825,39.122048957027054,40.69404683475518,469.92540338724825,4.45910178678933,44.87735840423442,470.1310341887099,-4.8310522910128535,47.608927821151674,458.3925235615503,-23.567255260261696,45.36064166085863,380.0367719795127,-73.3820582995624,42.95997189419896
R18:parametric:+0.5,418.9306564087476,39.18867867004184,44.44140813774724,539.1984064893755,4.417075430286305,44.41248197208706,542.1245222159455,-5.324598848201553,42.46537345164186,522.7500366709256,-24.645859151198692,37.778197807119035,429.33853370493927,-73.82682191617184,34.92377894195267
R19:open,16.598013590982493,-48.12103868746795,67.363731081028,2.1605576277684126,-85.4736027753766,65.97065473329761,0.1365297923343421,-91.89197983621162,49.041936891319985,0.04994002793101794,-123.28235189488805,44.58073971341239,0.05484449230994219,-166.83830617993132,46.824726122935495
R19:short,270.9020762060698,39.45324162980781,40.78370096110814,349.1093545683799,4.624290278467399,41.420013428489796,353.4099879577604,-3.6506670206435716,44.831885901280764,336.59773751825617,-13.382759328448765,45.099655169698636,294.5247212832914,-31.54864627862355,41.81772723616328
R19:parametric:-0.5,289.9048586642882,39.05240230745848,40.47522079222996,372.9478597431427,4.342830198985419,40.477925570706,371.6063746661526,-5.768646874806495,39.33349021600842,347.3756398983355,-23.324515267202067,34.34631193975068,303.3808269687303,-56.85351553810116,31.105756834106113
R19:parametric:-0.2,292.9384947585689,38.612224570727335,42.912559526785394,374.0582234240813,4.549953388603223,42.94110154376501,383.7454728200495,-2.8323952318251164,44.953275019652494,386.0636327783583,-20.4463381487245,41.4063188338002,335.1543551933036,-66.52362988279252,38.32640115422722
R19:parametric:-0.1,270.87894243191573,39.67698946600542,39.20616551313216,352.0057903840749,4.554151279422359,39.724695934015685,354.17048392525993,-4.2173473889591335,39.019437716571616,348.0885232273099,-22.632612158740695,35.30366149177344,295.1133858175216,-70.7765863162645,33.350278022288634
R19:parametric:-0.05,305.86837813850264,39.31340773434255,41.329920751488594,394.243153553881,4.487890861725528,41.32898765295298,396.88800638556773,-4.322822197346222,40.92435429800396,390.8656254951452,-23.02506498492302,39.207812486630324,326.734688470439,-72.95494383835066,36.072174741865766
R19:parametric:+0.05,322.3117662955793,39.22533838730633,56.909865067728454,414.86880945257326,4.437860298295723,56.90566272314753,416.055862278777,-4.4810811713041305,55.761577328380014,412.2078266450205,-23.80102335919315,51.51188552101938,334.1379236811804,-76.22956162862998,51.96377236858024
R19:parametric:+0.1,210.3969780387904,39.929698613601296,23.946096397784533,273.72401144986566,4.633708853648603,25.63569056298266,279.8293432029009,-4.423958187199599,25.6214169497443,274.8250021427814,-26.263325881021313,24.896698341819572,215.66025144717747,-79.28119104367991,25.492476369948115
R19:parametric:+0.2,307.5040191401678,40.309540777763615,56.31639385326931,402.12918222272,4.746072754070901,56.4548014924297,407.72644590694057,-4.557688116720994,57.79503774325736,404.731051897357,-25.266092568128713,53.094275803971456,314.8043791566188,-81.29092720941877,49.28547606599257
R19:parametric:+0.5,321.4348461080855,38.463625183673905,49.878913117723854,409.4212877895747,4.2635069208599266,49.87298562276321,410.4209155453355,-5.434069403548403,49.184369980151004,403.79322564418067,-28.816709725746108,44.93834223522832,281.83146449584154,-89.869896998464,42.076029185973155
R20:open,16.37210678839106,-48.39664130507144,49.688253455381705,2.1184314502546013,-85.93223278520794,49.21599834429885,0.11879569798067657,-97.99741365776254,54.85900265175802,0.028917532918993183,-111.86457303638798,35.79223058717247,0.042643441290230746,-149.37233814491867,48.45778914644639
R20:short,262.6246369971056,39.808987782593434,29.4725584973073,342.98589123794477,4.806788593881111,33.42301514023047,346.5698685459123,-4.154472589663804,42.81586338354884,321.50038858410403,-15.985308086917362,42.80985417327796,272.61169058362566,-32.91590562552389,40.80083983044835
R20:parametric:-0.5,286.91697317187703,39.38453913582836,41.539110810103196,369.6520260778361,4.4106337283304535,41.93918799251576,368.11736195666197,-5.386054589940239,41.008342591209406,347.1573086431795,-21.208056156125377,36.946248129761955,310.85512153238193,-54.64766736213521,37.83628028960544
R20:parametric:-0.2,313.8005371149304,39.80666849541611,43.78878466367008,409.0078498953323,4.663177891391034,49.6760311826776,410.48348429136905,-3.9024863665934313,56.28469854009756,406.9051917893948,-20.748008673704078,54.175204066012526,353.539978459587,-66.13188666108346,51.91805058949355
R20:parametric:-0.1,319.80354641484365,39.120221384229126,43.59682355604399,411.7631547530154,4.4511202488099535,51.780112619359194,413.0104172382244,-4.182768547698709,49.51442736534923,409.95733907558093,-22.262964348911954,46.05195369338645,346.2972196729757,-71.89017516426009,45.23824355520535
R20:parametric:-0.05,327.21208151169685,38.67242319003955,49.29252726838114,417.9166731510005,4.349973752876311,49.28832623415253,419.04073462358974,-4.3782122047974,48.17617539366393,414.8145084832517,-23.158414718889926,43.887870640763936,341.492006865265,-73.96807138434053,43.13717463129569
R20:parametric:+0.05,295.48279498089516,38.65155290381191,41.519016326665444,377.0069789676967,4.256980524076119,41.68664592495195,375.84406356441065,-6.089675940544119,40.93595205566047,355.58949445925157,-26.957331623381112,38.42954143507074,281.76552368594974,-76.49902539145248,40.7294328934252
R20:parametric:+0.1,318.39412232478185,39.130633144473634,51.21882013271867,410.4197155914069,4.450197028179667,54.28394488666338,411.5758294218698,-4.639080192314691,58.38860479515211,406.92284772383397,-24.585060903576487,53.68983495471548,322.6098174969111,-78.37940299341548,52.06595607165292
R20:parametric:+0.2,286.94143653733363,38.7261547197526,41.7189480106414,366.5958253570899,4.220265930038092,42.257452445747994,364.8481690150507,-6.921811391701377,41.46288808740397,345.56598439741623,-28.713114789980978,37.424236589594486,265.50826227008326,-82.35768188108905,36.350789069765035
R20:parametric:+0.5,290.3639135027809,39.23033142641997,34.71244914456009,375.52920187394545,4.525173701320771,42.253337708213294,380.74961247742203,-5.199334131365193,42.16365146964516,372.61826321299367,-29.568536084313706,39.61278091700072,256.3007367833843,-90.78533721867403,38.331664520777245
C5:open,231.77134703129985,38.416086041596614,30.820767454979634,294.314681904726,4.097238539752652,31.758036838897894,290.54157385505005,-8.298856216451462,29.259692244571298,251.2517199425442,-27.033616677953265,26.973128721378217,169.40184021510257,-52.946595758958956,26.926705108154035
C5:short,1.6268905103181537,38.01561208368006,51.360466480567595,2.0947314790266365,4.032303678668166,51.75629224938122,2.055881227206749,-0.5107587910830127,49.16286027265002,1.994541202969907,-0.35639000997559456,42.26339701195519,2.0275946795545554,-0.4532619718999218,41.8272227221329
C5:parametric:-0.5,312.60639636253615,39.96716917841241,50.15224121254758,407.87549052451266,4.637576636122165,51.69273734342809,408.9686984726118,-4.341287117865061,54.45585581683017,393.2286666494222,-22.54212078981658,50.81011723729145,302.1854563522562,-61.52693981146144,47.75366600692469
C5:parametric:-0.2,288.53946031746796,38.45456758090472,39.896393315004076,367.81450857054347,4.2336992509034275,40.39866744753698,366.16777111303657,-5.815535395505836,39.40580255840651,347.9483073866829,-24.957108612390343,34.70297840292399,274.6268458652981,-70.43706701967307,32.87060071809838
C5:parametric:-0.1,314.709877478163,39.318066365740755,54.74515330500451,405.6416131978517,4.448889757934621,54.7453634556332,406.6858326305068,-4.45028440847049,54.45916778298719,400.332518049721,-23.50017716799382,46.695214090094986,322.604330517623,-72.8006579862102,42.8551026869675
C5:parametric:-0.05,273.08776735828803,38.85538760010671,36.86291956027073,350.374774809791,4.246399113855539,37.727229286934495,348.0553473199865,-6.806467814631878,36.464902874762366,323.92424547754547,-28.065295279587453,31.321186406788076,257.2365004402699,-73.82699745971696,28.415939339241334
C5:parametric:+0.05,280.04963270172425,38.6013306903328,49.691714787784484,358.13046049556004,4.269066428000722,50.18289320371362,357.9829352064009,-5.621202207638051,47.60033517985679,348.6457128809421,-26.939134465164724,36.20630267807841,278.5867606015766,-80.62092954525366,30.84780373823716
C5:parametric:+0.1,233.6284618030285,39.233426043320584,34.10709870643537,300.4943347447672,4.207344075331084,34.538054611952326,296.6595802074983,-8.826054729386442,32.475477853978504,267.4602079591339,-30.087344818563643,29.764238718231127,218.95580010476604,-77.18180409151947,28.594533056868617
C5:parametric:+0.2,286.88035335335786,38.75445033093911,41.55583828125143,367.10534159854467,4.2132463562037,42.06900514744059,365.4659582872939,-7.29856137428491,40.62684150765819,345.69090101469465,-30.37741213502368,35.587097979892015,276.398648843014,-84.5909033991112,33.792680993921195
C5:parametric:+0.5,311.385562428614,40.2423125435888,43.70765467279159,407.3472313431076,4.802343074982016,50.41481476732219,413.5146693281311,-4.176213240048439,57.65444677091649,425.56866918816297,-24.12349529158795,57.003015019669746,349.5187064363353,-91.29565823393227,54.182137616461084
C5:cap_degradation:+0.2,297.9743390660928,39.4838929721166,44.44813072878959,385.8747956309088,4.631776782532023,46.62573596194866,390.80786276486634,-4.353859186384849,44.658687994825414,380.124714365032,-23.134298538690853,40.932589180943296,305.43410693689106,-68.67958843895943,38.617363949761184
C5:cap_degradation:+0.5,269.27312986497964,39.85590453249041,43.79937473759799,349.743857914978,4.382532649523579,44.38280180080835,347.5042602282624,-7.481523867280506,42.128489580166594,311.49256567411754,-29.907922191211224,37.11108275687986,227.89085319170732,-66.51275391025094,33.134837527134295
C6:open,302.1109831838877,37.96388390522268,47.143761627326036,382.1565506993867,4.582978908604008,46.852974949119044,388.3721609260542,0.31385864962604576,42.50408902084084,387.3719173596239,-0.31570649486682145,39.36029766065326,386.3488329944356,-0.7324535034563697,37.30404219057699
C6:short,0.04859153343347625,30.981592556825582,39.55547232690942,0.04804713425194175,-11.552452833773994,33.28430576723893,0.05720826324043572,-5.595799568342587,47.71262703845211,0.0639950176393784,-18.293408882742774,44.43550404377516,0.029324795850792538,-6.121394681740448,38.408379988516884
C6:parametric:-0.5,318.58762545416124,39.358459588879015,53.184580927680535,410.78204582315743,4.5938378198376935,53.17215602751707,413.66398688129743,-2.035344349592554,51.891278230468224,419.766716174004,-12.003324584592333,47.77611127143749,461.84067512068077,-42.56953509811481,45.07217261049358
C6:parametric:-0.2,232.48479102140044,39.07992528493935,33.92921648119344,298.7399400708725,4.303533367179501,35.006679002500746,296.93744457126,-6.293194946832819,34.40451018520743,281.78907370921775,-22.836228181854512,31.16681960613266,260.44413350588707,-64.69726368877285,29.63440214738283
C6:parametric:-0.1,305.0571888287128,40.214772322555405,41.515386993279485,400.02752944514395,4.685431216558593,45.663022568792634,400.8068672968237,-4.118124730700412,50.10497157266133,397.2154012811433,-20.96367392494476,47.8610382956118,352.11133801711014,-68.76025268832652,48.30186540978758
C6:parametric:-0.05,271.2315346630823,38.81053397071117,42.690618842652995,346.8198578291212,4.3362985536763405,43.23974163388424,346.65235160383975,-5.153585893140812,41.36614735857969,339.4758732801624,-22.96052031177063,36.054558504354134,290.097878055203,-72.0903074446429,34.48949629448502
C6:parametric:+0.05,212.68672002095386,39.01413401038319,27.75436821251084,273.1284060484703,4.091587265275441,29.375500912785242,266.54775991474855,-9.9892019812115,29.3228556526297,225.70725343301413,-32.40424325825161,28.783945234548966,171.43943560938567,-78.18234761577149,27.264188023503678
C6:parametric:+0.1,292.71038345885347,39.48130284149976,53.73702558296309,378.3865927925284,4.346031143192318,54.18185462987266,377.13931931497234,-7.123000912931395,49.270999392609646,350.4861675020611,-31.37262287557535,43.445022396974025,262.2134672238864,-82.43827578117855,40.80872479135799
C6:parametric:+0.2,241.9671935654304,39.89098321475882,28.54410993755976,315.39804916550196,4.324446728073767,35.35161670047948,311.01642654797064,-9.148161327625624,38.83180901088613,278.06808285658974,-32.415799358788234,36.80295068041233,197.45717874479067,-82.61138324527784,35.7222001390668
C6:parametric:+0.5,287.01543110489825,39.83469176997317,45.049208425598465,373.75381824183785,4.3432738135705975,48.89123838609254,371.41299734963803,-8.90789828663107,48.828015765517804,330.20529436343,-38.70001766800246,42.28401296808572,192.95166740381595,-93.94193119500196,37.2518517589498
C6:cap_degradation:+0.2,292.0713717358246,39.09319204133676,41.71881548053183,374.96905150254565,4.506368090217868,41.63214418974927,378.22027414116417,-3.144929683520363,38.7356108929318,381.46465967954487,-18.438256559134555,36.43650263568689,362.1434400597434,-63.60338926406003,35.92544285772285
C6:cap_degradation:+0.5,286.58181182232306,40.53846695218249,50.10093235586157,376.2107067621804,4.658309169113048,53.25782148191293,375.83894043366115,-4.395550755356198,48.15127743201114,360.02247584455984,-18.4650086348027,39.320127389502105,376.07368942578273,-47.55486221697856,36.7663649568177
U1:opamp_vos:+0.02,287.3575845436988,39.08832786570785,45.87419954397507,368.95591152099865,4.299475346733813,46.44147311691772,367.44813770582783,-6.5829569476399055,45.31965060371026,347.38637097666117,-27.965633846023735,39.062328318631174,275.5995129822196,-78.5923224890551,35.0651575662533
U1:opamp_vos:+0.05,319.71425667502723,39.31024510423556,52.20551961425097,412.0463142478531,4.454359936287981,52.19898071171159,413.257005895117,-4.409498670082148,50.91637661731364,409.7447725302602,-23.495280116305622,44.674139559278245,335.1554938399749,-75.40636833353479,41.43282488143472
U1:opamp_aol:+0.01,258.29109551232375,39.99962554941509,37.17516320403298,338.20475010322815,4.588326232740463,39.86391037253758,340.99866788738996,-5.901806705310632,37.70628478616729,331.1864556032652,-25.669332389745055,37.94059519906301,275.5704809274888,-76.02841976232753,37.390336103238766
U1:opamp_aol:+0.001,302.3904681753299,39.30958887896764,45.285743006749996,389.96326013318327,4.52222690308616,43.266749287343046,394.1410841807989,-4.144055322676962,42.69080530054018,391.50191728940223,-23.05874333005572,41.70734034719562,322.6980755739503,-74.16729212497086,40.84741632846665
U2:opamp_vos:+0.02,196.9929142992075,39.244228420255624,21.902433105987384,254.1968683324457,4.276627581340044,29.903132761002105,251.14980471136658,-7.632182079354107,32.5304308770629,225.327434345065,-28.88054134589473,33.28431705087471,179.97310559957077,-77.04928126485456,32.893618546176036
U2:opamp_vos:+0.05,284.5214432502211,39.78779334726335,45.98726167434819,369.1894752850035,4.443474133793584,46.53410419646888,368.0942856450575,-6.132525684510553,43.73983071056066,349.6919875214317,-27.08021421927553,36.51055826350746,278.7619818620992,-75.5158588822818,33.067004356208066
U2:opamp_aol:+0.01,250.9231109019277,39.37268691340999,40.910856462047974,323.366089333615,4.234918025294734,40.98176850824777,319.3433349630855,-8.592434786405176,34.82732664656497,287.28435385474666,-30.7253250442973,29.97157624344662,225.0576343250681,-79.45613157337549,27.549691056391058
U2:opamp_aol:+0.001,216.20730551787523,39.64863718991094,28.757913833400465,280.7140494872533,4.226592153766627,29.25597811741242,276.6305467736709,-9.332093897640613,29.076806109035164,249.7286524544883,-31.68086753013806,29.61763778219975,195.07985804646054,-79.72481904976613,30.008159689031007
U3:opamp_vos:+0.02,317.98599371092024,38.65100761241841,46.67053573636563,406.05053014130294,4.435032896779462,46.69695066791303,410.6580487462003,-4.184842302335792,47.78089325671021,407.3557746627214,-23.194777045702683,43.64774352180138,334.56484605199336,-74.24906400537756,41.59556704109187
U3:opamp_vos:+0.05,276.86318391978875,39.216447533983484,50.98350429492844,355.32546685108775,4.3181952588520325,51.53376808147177,353.6842200114794,-6.612833837043439,46.8991865407353,337.4936576988733,-26.40437203696176,38.68847353173364,273.2393736163098,-75.75350448041252,34.97460245277438
U3:opamp_aol:+0.01,294.47005722397995,39.82341747917757,39.701784173331966,382.7276299232203,4.787104903549361,40.410945312700356,389.6237299195088,-4.241063972141549,45.85745408988413,385.5027035854257,-23.047627263464612,44.381088923855444,317.99095008674084,-73.58553762371253,41.986234930370756
U3:opamp_aol:+0.001,295.1576842625909,40.02181624389254,47.856415029317695,385.6280205470741,4.7081832717579495,52.30322607288433,389.6293020319862,-4.207528097402173,52.06124239245153,382.83851083718866,-23.03705876334961,45.75179997512518,318.9546883554925,-72.55887160672532,42.53775576014188
U4:opamp_vos:+0.02,272.6055748325851,39.59916252758231,38.08296422384239,353.81758323437947,4.5846798152344075,44.041888168610946,357.4962693429163,-4.91472259641701,43.7749345784659,352.0442210261265,-23.46704195094737,41.53089242113301,291.6984065887904,-74.9175458122305,41.07725908549767
U4:opamp_vos:+0.05,319.6514357764713,39.38907677074795,59.20312737573193,412.27419269493714,4.467495384946805,59.02407020126955,413.5378292748582,-4.345558202474175,52.36653352555987,409.5808464352572,-23.08668348633715,41.4698804377495,339.3175496971477,-74.10334644337016,37.223722847120534
U4:opamp_aol:+0.01,235.73753477076835,39.6498762662348,31.88249090529271,307.15901088720955,4.374408117266878,38.15457485453429,305.40272085215986,-7.24162783425272,37.34611505838485,284.55381324635357,-29.99389901499407,36.032596901785425,220.10234837975113,-80.99844640851745,35.05324881411728
U4:opamp_aol:+0.001,284.33047541786374,38.80591072687574,37.85635438198316,365.19896255458207,4.427434399890638,39.80464082600169,368.7261738535226,-5.07268224525463,44.69604742780618,359.0293166439374,-25.89599722842162,43.20330289330742,288.51575451016595,-77.36795221791435,39.7756042589231
U5:opamp_vos:+0.02,237.8568552861882,40.30157294216571,28.567399779057688,311.211284496056,4.2995527447088335,33.81768414689363,306.084735976002,-10.417017964209691,36.24669175568745,264.9518142766168,-35.19718123225972,32.53489565867908,205.60139923954716,-80.6257628179915,29.793400290559596
U5:opamp_vos:+0.05,265.5851960023873,39.50633976690834,33.533684206384734,344.4891868763141,4.545040474432161,35.56266515861516,345.332195240892,-5.245041855894776,39.8145453852677,334.9964602130495,-24.699671118559237,38.13220124482508,274.76279301240663,-75.59790648414092,34.657514520949746
U5:opamp_aol:+0.01,308.6359001665662,38.86990945359984,48.07278661249789,395.3792052518124,4.437267949011936,48.043715932197365,399.3368740422943,-3.9628883053260444,46.13433850383226,398.65128944886294,-22.426165259322115,42.84773664523831,335.45559687941807,-73.53163881607772,41.5156198577943
U5:opamp_aol:+0.001,244.9720518126074,39.10181418690534,43.808711740085954,314.6627503531202,4.554080532550061,44.15334830215432,319.31044627767477,-4.531304011040611,43.14655341437735,313.3743141703744,-23.962306221807534,37.566680028677546,255.06300906951668,-75.79445368965507,36.68993190959489
U6:opamp_vos:+0.02,272.1300598635165,39.62198179448225,47.03588479874309,352.3102225176101,4.361594342603679,45.592475589443126,350.1515886284532,-7.149980720815792,37.629451901688924,329.9083637856445,-27.072577358517698,31.927199725409295,270.721579959526,-74.83013613461449,30.24757624363518
U6:opamp_vos:+0.05,274.56926194884613,39.55712278908038,34.732544024491546,355.3968532935274,4.626193192196889,35.40978827161411,360.10665364200497,-5.830321917062099,38.927550803653816,348.4538412817804,-25.548607448751174,35.99384882582197,286.46075870798336,-77.05942589875838,33.22581533859547
U6:opamp_aol:+0.01,317.2683576832676,39.2546229389653,54.55729956426746,408.52786995535246,4.454077826401919,54.55856915182229,409.7275134995414,-4.282340775886475,53.53945335615019,406.141028453288,-22.700354076782897,47.616749773373286,339.42972765077343,-72.95025191618481,44.08727771375579
U6:opamp_aol:+0.001,308.68751106157805,39.768624196655054,35.53401990409295,402.4147202730101,4.699815569693717,52.54147056277336,406.4463804192395,-4.143474910292465,57.27835018670844,404.10229327770656,-23.1075552111625,59.4513927901629,332.3243042293245,-74.5678049666269,57.80253206383827
la:electrode_off,6.50292682417429,39.18487610089455,-11.71708876830671,8.363130347395208,2.644830127834495,-9.528675343371853,7.134447013850652,-36.4665650872711,-10.90979051258232,2.5443199472039346,-100.30546811221289,-19.863034091296413,0.6589545379229149,-170.28151306101302,-31.713931247127068
ra:electrode_off,6.818087553588126,39.020393275406626,-11.2946288813889,8.737751571662642,4.642816408692749,-9.139142740561551,6.720904679063873,11.73604250216469,-11.420255183389184,26.406420914212905,58.15900378315722,0.4516926075155397,65.54029156680068,-8.330983940302964,8.360760764630497
rl:electrode_off,288.07203144453234,38.648275510377104,47.37137356210883,368.2916151167168,4.450707205818098,47.50852704785292,372.11078518281795,-6.188653167420652,53.98485889529799,351.67029297164356,-27.159874783470887,67.26442990408444,277.18639281446326,-77.127616233369,83.67457342330849
la:electrode_high_z:+5,259.37622322817305,39.03955212208682,28.563746322889163,334.0409179621044,4.264500007113281,29.0695735017334,332.6623933889119,-6.797873003691505,28.16745405860831,321.414459761032,-26.328528299587568,24.190354155500692,260.39924784061566,-77.05031065267087,22.15068029112428
la:electrode_high_z:+20,267.430274219937,39.378673504974714,20.483934989715806,344.67723813689054,4.924366203108201,22.697775102032367,365.5620030939249,-3.048061067859284,23.29059120553302,358.77867319157895,-24.39256135272433,23.13646540700023,288.97243142496643,-75.58415146487063,21.252497539715012
ra:electrode_high_z:+5,245.7371331238215,39.15004957214116,28.043018304638235,316.31810353614634,4.564555486305965,29.107456310457675,322.2863561366402,-2.610883371272102,28.547615767893085,326.2859214037291,-21.578918391185873,24.81206105377747,272.77099648358666,-71.71946374527697,22.043857486658467
ra:electrode_high_z:+20,220.59177717441526,39.83533938039212,18.2647159526823,286.9321961584136,6.186979554076517,20.581624735375854,319.5439189289377,-4.852653378313859,21.506409702217667,300.7840623812318,-24.369733867226163,20.75930810493592,242.2916821125333,-69.84701368056128,19.05361087629653
rl:electrode_high_z:+5,314.4001406508626,39.989732918397905,54.70482175089202,409.1064086595591,4.558068048961768,54.70100993191115,410.2304646993911,-4.506786553734554,53.300865866798375,405.08125963309305,-23.84738945291823,44.670054824513215,327.7355774394864,-75.60069542058301,40.684827445292896
rl:electrode_high_z:+20,312.53732040300685,39.48720230384427,52.094236837023146,403.9910058865063,4.631762900886991,52.174339386495454,408.64306217404743,-4.280646602698276,51.8504360593546,405.0282902405884,-23.427560821772424,47.39618532076552,329.37463756928713,-74.55252370814188,45.477881780007095
la+ra:electrode_high_z:+5,270.4003420359836,38.70669536365585,36.569264081392575,345.5646649225135,4.29162472688781,37.04322171381022,345.88123226221757,-5.619020090172001,34.35278187316475,334.0024444740907,-24.73151385821953,30.847320237145347,272.179273697585,-75.10067549644822,28.905764834894825
la+ra:electrode_high_z:+20,283.87359245000687,41.74845433144613,30.335141557218982,390.7853502850058,5.315547698139044,33.376127598525905,391.2069559103536,-5.847145263601502,37.90529431777365,366.8972463326543,-27.714453786718046,36.79620850155459,277.9213824269259,-78.25242209014516,34.98954476991646
