,R1,R2,R3,R4,C1,C2,R5,R6,R7,R8,R9,R10,R11,R12,R13,R14,C3,R15,C4,R16,R17,R18,R19,R20,C5,C6
dc_out,0.0,0.0,0.0,0.0,0.0,0.0,0.0,0.0,0.0,0.0,0.0,0.0,0.0,0.0,0.0,0.0,0.0,0.0,0.0,0.0,0.0,0.0,0.0,0.0,0.0,0.0
dc_ina_out,-1.2944386921742272e-23,1.294438712483244e-23,8.026317425347072e-23,-8.026317464250165e-23,0.0,0.0,2.931602028826927e-32,-1.0385595472512112e-31,1.2331879100252436e-31,6.285915304995182e-22,-6.285288661819383e-22,-6.285444170352494e-22,6.285445798506132e-22,1.6306252184821962e-28,-1.3180913620996604e-28,-3.1286895833271717e-29,0.0,-6.04547417214323e-32,0.0,0.0,0.0,0.0,0.0,-1.8802901573609155e-31,0.0,0.0
dc_rld_out,5.480497421688696e-24,5.480517252977607e-24,-2.006066425252425e-22,-2.0060662697983653e-22,0.0,0.0,0.0,0.0,7.264208392294923e-32,-7.104395807664434e-29,7.264208392294923e-32,7.264208392294923e-32,-7.104395807664434e-29,5.655532911209332e-21,5.65553291113669e-21,-1.1311911404242729e-20,0.0,2.192204504728694e-22,0.0,0.0,0.0,0.0,0.0,2.6877571051491214e-30,0.0,0.0
acd_mag_0.05,-2.975814986918124e-05,-2.9692138107388796e-05,0.00018451879001878577,0.00018410943337777093,-3.4915837417275617e-10,-3.8731365615602924e-10,0.0270214912841308,0.027021491283042584,-0.0540483805332076,-0.04486672917981086,0.04486225641568005,-0.014956692490912506,0.01495669636437095,3.896172978928212e-09,3.147161936772333e-09,-2.2862153401433246e-13,1.588626556868823e-12,-1.020003767140868e-12,0.023918098567842192,0.023918098552056115,-0.058317557443287364,0.05831174291612834,-1.4612326694419554e-10,-1.464552744399786e-10,4.393247886856255e-09,-4.685788591110092e-09
acd_ph_0.05,-1.030685386903935e-06,-1.005793861124384e-06,-1.2137331104959615e-06,-1.3512015780832823e-06,-6.351512057221458e-06,-6.337421111730398e-06,-5.150398214235229e-08,-5.150496572402508e-08,1.0325143732820314e-07,5.608420984759524e-07,-5.6036304542866e-07,-5.492749260119748e-07,5.494437891018892e-07,1.4244457390982198e-10,1.1492867339424306e-10,4.8772644931602245e-14,-6.503019324213632e-14,5.568210296357923e-13,-0.32109358760407297,-0.3210935873124735,4.2636920609645985e-07,-4.2578087387381113e-07,-0.00012767734796868788,-0.00012767611192761178,-1.254330817963869e-09,-0.0002553523336912199
acc_mag_0.05,-8.684030548272512e-08,8.335176047670651e-08,-2.1580410558971514e-05,-2.1750599261953184e-05,-3.3759182085016503e-10,3.3765269891138063e-10,-1.749229638901326e-12,3.647434986519646e-12,-2.9282917892995173e-12,-0.00017011810430035286,-8.594370076077524e-08,-8.518074644338304e-05,-8.501059218055092e-05,-1.3226760808928015e-12,1.9405761251923243e-12,3.297471535117453e-13,3.1096063280325366e-12,3.1143918287272923e-12,3.4577242591610065e-10,3.427841983182784e-10,-8.295666568821403e-10,8.29483945292981e-10,-2.0785968967441744e-18,-1.3532408149809213e-12,6.249396929481911e-17,-6.665533342710189e-17
acd_mag_0.5,-2.9616812477716323e-05,-2.9551745059988076e-05,0.0001836352423324376,0.00018322701828763947,-3.4630799529125765e-08,-3.8550878378557215e-08,0.02689333391250043,0.02689333391181896,-0.053792040188859296,-0.04465393540906799,0.04464948386095627,-0.014885756081634565,0.014885759936709254,3.876996008508775e-09,3.1335023419767934e-09,2.176754735000256e-13,-4.0979056942997244e-13,-3.594943425985271e-13,0.00039408413874836154,0.00039408414443265974,-0.05804096928945378,0.058035182339375505,-1.4546187427960162e-08,-1.4578122233884895e-08,4.372382411779383e-07,-4.66359382177493e-07
acd_ph_0.5,-3.2873699687189686e-05,-3.20798179754434e-05,-3.870994590111097e-05,-4.309400156832494e-05,-0.00020257243205038403,-0.0002021221196670165,-1.6427643738686698e-06,-1.642771999575761e-06,3.293199671090989e-06,1.7886233836796136e-05,-1.7870918898820658e-05,-1.7517937869599984e-05,1.7523345437393033e-05,4.548329174391291e-09,3.659299092735754e-09,-6.084685535015688e-12,1.1843666198516555e-11,1.1470969081857804e-11,-0.1695257095547223,-0.1695257093508683,1.360670805186688e-05,-1.3587932588754782e-05,-0.004072301488453574,-0.004072262072363009,-9.92294244021525e-08,-0.008144468402137547
acc_mag_0.5,-1.0739676957906744e-07,1.0309068354347002e-07,-2.6674846627561344e-05,-2.6885166298946325e-05,-4.176398218209598e-09,4.171478208926491e-09,4.62700884775407e-13,3.428625520100618e-12,-8.733459525960022e-13,-0.00021028320703362697,-1.0623619390217127e-07,-0.00010529202669368968,-0.00010508170826423844,-3.147428701564187e-12,1.8583099352851035e-12,2.950512672503768e-12,-4.328222886928749e-12,-1.7686516727654327e-12,5.524575318795077e-12,5.916452799505924e-12,-1.0259527616092313e-09,1.0258504694270835e-09,-2.5712361723124797e-16,-3.3616953532661407e-12,7.728778293388343e-15,-8.243533880616346e-15
acd_mag_10,-2.8486167342555518e-05,-2.8669301745512396e-05,0.00017391737803592024,0.00017321882467518154,-1.3051066723374976e-05,-1.4535559427535872e-05,0.02593818849712076,0.025938188499612703,-0.05188155855394253,-0.04306797225380268,0.043063678811552146,-0.014357103708099988,0.014357107425333521,3.7395095672799386e-09,3.0213452461277503e-09,-1.0388055229987785e-13,-3.1362411018779914e-13,2.0221023539289198e-14,9.564435015889905e-07,9.56450698290917e-07,-0.05597958293118434,0.05597400151203886,-6.104259011539107e-06,-6.116786075979389e-06,0.00016813895345015617,-0.0001803583526094006
acd_ph_10,-6.602974950814193e-05,-6.442902055686855e-05,-7.597891209271496e-05,-8.462112961716329e-05,-0.00039963485590220095,-0.0003980296900404567,-3.300320755580942e-06,-3.3003381793416487e-06,6.6162174838281e-06,3.5950821260374044e-05,-3.592007148016168e-05,-3.521093421856422e-05,3.5221772074774604e-05,9.118111869478804e-09,7.369214198744723e-09,6.250734882971382e-13,3.058627824245632e-13,-1.0180233322422662e-12,-0.0008571246564878486,-0.0008571246377594098,2.7336873003156318e-05,-2.729915177019e-05,-0.008203765996406568,-0.008203682608178836,-4.8133445091519544e-05,-0.01635932093059914
acc_mag_10,-1.2715392726112096e-07,1.2214768271649522e-07,-2.603130334336912e-05,-2.621982300277605e-05,-8.432732212358097e-08,7.897808631885656e-08,-1.0409546063330276e-12,9.071387305065399e-14,-4.583240170415716e-13,-0.00020744255108101018,-1.0480107275642158e-07,-0.00010386967089215974,-0.00010366218425487598,4.934462123460552e-13,-3.254274883402786e-13,2.0481010113616783e-13,3.5743813700164774e-13,-2.5701640761941142e-14,5.2852490451660737e-14,-4.011485061127928e-14,-1.2157864723159667e-09,1.2156652528723588e-09,-1.3257468436401473e-13,-7.219523035985453e-14,3.6517075421381485e-12,-3.9170932936936446e-12
acd_mag_50,-2.1390737326010167e-05,-2.6363920522868327e-05,0.00010206010405874506,9.764575326325569e-05,-0.0001704977978823958,-0.00019180377486013403,0.021099039375006755,0.021099039439917054,-0.04220229367351778,-0.035032190080270004,0.03502869776613531,-0.01167939787505438,0.011679400864749338,3.0455249794335698e-09,2.450801631908579e-09,-7.626651460021484e-14,-6.4696167299754895e-12,-2.0859217668434827e-14,3.112386268342253e-08,3.11297371605984e-08,-0.04553578327531721,0.04553124317533749,-0.0003623545772652006,-0.000362582320945388,0.003146031484463253,-0.0038708564501311847
acd_ph_50,-0.00017547315995233043,-0.00017081519025575852,-0.00013009952551317153,-0.00014635706325621204,-0.0007684964895503488,-0.0007352543707409775,-8.797434445976368e-06,-8.797477482869877e-06,1.7636375064625654e-05,9.661377806362593e-05,-9.65318541459381e-05,-9.464151753630907e-05,9.467044865658768e-05,2.430871222474395e-08,1.963883074545573e-08,-6.491131111606054e-13,5.571612057346993e-12,-1.2114463946259428e-13,-9.139250041907797e-05,-9.139245243434582e-05,7.287404902374895e-05,-7.277349781917041e-05,-0.023172161594061703,-0.02317167544991176,-0.0031712436877127247,-0.04317250324268183
acc_mag_50,-3.733724358135835e-07,3.603324542971828e-07,-2.1614125682746335e-05,-2.1445033140994918e-05,-5.07508220386343e-07,2.0674176853540057e-07,-1.4174011935806128e-13,9.756798799557453e-14,-5.5380325978443336e-15,-0.00021082472359075822,-1.0650993737129295e-07,-0.00010556317625121061,-0.00010535230718775753,5.97868804053108e-11,-4.872539689984112e-11,2.231519670268012e-13,1.1463670142704321e-11,8.340010053403867e-12,3.323421365885848e-15,-4.172527298633198e-14,-3.577852657225694e-09,3.577495930984993e-09,-2.847104395274212e-11,-2.8516376440665466e-11,2.4719102859623887e-10,-3.0414221605273823e-10
acd_mag_150,-3.2176296142567327e-06,-4.475832699183236e-05,4.441554561102661e-05,3.500141164673252e-05,-0.00034067410931760457,-0.0004129350783738878,0.019202006269744373,0.01920200683090639,-0.03840784897381142,-0.031873522695549564,0.031870345586650174,-0.010638195416837543,0.010638197873558658,2.8085416473830657e-09,2.1687354350702877e-09,-1.776889649727107e-13,-5.3882459641042495e-11,-1.1743394935569169e-12,3.1478334785646643e-09,3.153183327789087e-09,-0.041441713823622175,0.04143758210676186,-0.013173610806701177,-0.013173743457632036,0.006426362313300525,-0.03277403127780688
acd_ph_150,-0.0007582372166752208,-0.000723114897870238,-0.00013656672890393476,-0.00016553068699990274,-0.0015811605668958804,-0.0012459802309185948,-3.7854595930983665e-05,-3.785462792709752e-05,7.588763576014523e-05,0.0004238296503756728,-0.00042347763456167714,-0.0004153431929531156,0.00041546819320882665,1.0478456254324316e-07,8.435662005653673e-08,-2.1666628412449487e-12,6.324544593299479e-11,-9.35966484728976e-14,-4.369482359736864e-05,-4.369461767080208e-05,0.00031405097210384324,-0.0003136182609934431,-0.1052359871749788,-0.10522848227893535,-0.08376211675416137,-0.12670833256692754
acc_mag_150,-9.300475965435421e-07,9.246662640593317e-07,-1.0718150533804968e-05,-9.537479815019488e-06,-4.731329548707523e-07,9.580925169912127e-07,-3.206450500879824e-14,6.223344590726279e-14,4.134773723088902e-15,-0.0001845227504262821,-9.322392458972114e-08,-9.239337247369606e-05,-9.220881231444815e-05,1.0850170640828229e-09,-8.853007695718241e-10,1.3343486156950098e-12,2.010258523358111e-10,1.8995868878810597e-10,6.504961795633402e-16,-3.809543810160409e-14,-9.043139726119222e-09,9.042238132420266e-09,-2.8746591836887012e-09,-2.8747839063117238e-09,1.4023187501667346e-09,-7.151734733718299e-09
zlo_mag_10,4.464332934693243e-05,4.464332930442923e-05,1.6781271117549872e-06,1.6781275843286515e-06,-1.3335946102728587e-07,-1.3335931634189845e-07,0.0002507810083470833,0.0002507810083711531,-0.0005016121141313101,-0.00041641393923712457,0.0004163724269515248,-0.00013879516818699137,0.00013879520414044377,3.616725874479173e-11,2.920171480085813e-11,-2.949335492547958e-16,0.0,1.9252606687465836e-16,9.247286758809647e-09,9.247356289393883e-09,-0.0005412334888362383,0.0005411795253946717,-5.9018471203915414e-08,-5.91395879270741e-08,1.6256361269898062e-06,-1.7437782725264565e-06
zlo_mag_100,0.00010235946777990826,0.00010235947286210284,1.2582091043025234e-06,1.258211570441146e-06,-7.18408560077379e-06,-7.184074898478156e-06,0.00044024640465064853,0.0004402464102332389,-0.0008805807606898685,-0.0007310153336064086,0.0007309424592260886,-0.0002436551375225988,0.00024365520078477217,6.668892529518334e-11,4.8327137744042593e-11,0.0,0.0,0.0,1.62340659510467e-10,1.6246322131180226e-10,-0.0009501373539731839,0.0009500426230522924,-8.465512365507372e-05,-8.466665667066194e-05,0.0001828386460598694,-0.00035214159633309536
pulse_baseline,3.709297853138347e-18,-3.709297821017945e-18,-1.736596122486562e-17,1.7365961234692095e-17,1.9784950899387927e-16,-1.978493670811876e-16,8.609737972924376e-29,-9.075691018915053e-30,-5.251897767773683e-29,-1.0436720458132336e-16,1.0435682844403224e-16,1.0435938683059288e-16,-1.0435943742739912e-16,-4.8277980502327314e-23,4.356254735513028e-23,2.8620732555055197e-24,-1.853697525634702e-24,2.0039602217570901e-22,-1.1168154349346443e-25,-1.1164914060415556e-25,9.485219182013545e-24,-9.484351749329967e-24,4.691848392959323e-24,4.673488379926453e-24,4.980175357524274e-24,4.367347386174014e-24
pulse_peak,-1.8580415458811215e-05,-2.5104042835270926e-05,0.00012604517212541148,0.00011921562120903093,-0.0002157472621641385,-0.0002460152758046705,0.026051090794006835,0.025639939712497117,-0.05169821007989259,-0.04291438099562422,0.04291009408059104,-0.01430581254480964,0.014305813050304457,-0.00025893356831327023,0.000195120857607015,5.6010975945465144e-08,-6.478072828236597e-05,-7.343349872783981e-05,3.7234516838063805e-05,3.7234517827620637e-05,-0.055785954035770254,0.055780380941350294,7.351675008795515e-05,7.306892130948976e-05,0.007151025375884926,-0.006999011850547079
pulse_end,-2.9568402210402627e-05,-2.950447235041281e-05,0.00018390652426493535,0.0001835089351635479,4.715065047713316e-07,4.705065912777593e-07,0.02691862332281437,0.02691862399731669,-0.05384262474982226,-0.04469596208201212,0.0446915063057795,-0.014899711287173142,0.014899715136217778,4.298354406261997e-09,2.8096609996138004e-09,-1.842207540932492e-13,1.1271775002514742e-10,1.2216835921506419e-10,0.0030204525609185376,0.0030204525663868518,-0.058095572810888244,0.05808978037015557,9.47365745788776e-06,9.47356633157066e-06,-2.819897504681271e-09,1.8950046949698567e-05
pulse_undershoot,0.0036547085426569537,-0.00032394387406179217,0.0001655036385622595,0.00031672104389144447,-0.00018636475480879555,-0.0029621636727127855,-0.017349547773741997,-0.016487835754332325,0.032157384716106824,0.023973155418167972,-0.023964123989497925,0.008112982276083727,-0.008115687273667835,0.004474054797273701,0.003897811212993923,-3.222635790569637e-06,-0.0029261853202331408,-9.684598475857525e-05,0.018701508113531096,0.018701505050947437,0.031101568961515055,-0.03114685209062677,0.003592252535933125,0.003609028780048655,-0.048917230640498646,0.055919360847877644
pulse_tail,2.687307288499629e-05,2.6814244506529184e-05,-0.00016712401873209549,-0.00016676333332742475,-4.276701799140104e-07,-4.3073165835889657e-07,-0.024462167057243602,-0.02446231465791089,0.04892936801948143,0.040617359125899075,-0.04061330995252554,0.013540080522933566,-0.013540084021262234,-9.759400483797077e-08,6.582667433488733e-08,2.485720867222191e-11,-2.452897428256435e-08,-2.6742518751090076e-08,0.0430924790086263,0.043092478972601565,0.0527942243931196,-0.05278896051810083,-8.609888264111787e-06,-8.609747413868633e-06,2.0846313800235974e-09,-1.7220205261073707e-05
pulse_rise_time,0.0,0.0,0.0,0.0,0.0,0.0,0.0,0.0,0.0,0.0,0.0,0.0,0.0,0.0,0.0,0.0,0.0,0.0,0.0,0.0,0.0,0.0,0.0,0.0,0.0,0.0
pulse_area,-3.002332121591915e-05,-3.0296384620855723e-05,0.00018016985536437554,0.0001794819236375468,-8.738414557503402e-06,-9.578010472660591e-06,0.026633013744216626,0.026608499966126967,-0.053246960259878184,-0.04420067640493667,0.04419627016553794,-0.014735706754572897,0.014735710556326557,-1.555129458680862e-05,1.1524788109759855e-05,3.921699605755663e-09,-4.115971409737797e-06,-4.519046548066362e-06,0.001484607778438011,0.0014846077848418163,-0.05745268222655096,0.05744695410752065,-0.00018011101288684255,-0.0001801033546824933,8.142955397371735e-08,-0.00036004510675044884
