condition,dc_out,dc_ina_out,acd_mag_0.05,acd_ph_0.05,cmrr_db_0.05,acd_mag_0.5,acd_ph_0.5,cmrr_db_0.5,acd_mag_10,acd_ph_10,cmrr_db_10,acd_mag_50,acd_ph_50,cmrr_db_50,acd_mag_150,acd_ph_150,cmrr_db_150,pulse_baseline,pulse_peak,pulse_end,pulse_undershoot,pulse_tail,pulse_rise_time,pulse_area,zlo_mag_10,zlo_mag_100
healthy,-0.001831501831501825,-0.0012210012210012167,317.82311001289725,39.29359551856853,53.361168362209106,409.7567405562367,4.464277855942445,53.761870036170556,411.21203003613755,-4.360674926905218,53.34730540429697,407.9000592186594,-23.253061822350958,46.566102644598516,334.83567505809356,-74.73916638749321,43.76306317183734,-0.0017821684488351093,0.42606775940109254,0.39079439079439077,-0.03556936890270254,-0.017192683859350466,0.003,0.07944418544418543,50076210.96926286,23755074.768734872
R1:open,-0.0024420024420024333,-0.0012210012210012167,6.359885133195814,38.90722073168793,-11.889755267152076,8.144682571770282,2.6397561352953245,-9.741308485516395,6.984299435873435,-36.11176368287173,-11.076164762569366,2.5095917694121,-96.68446032514663,-19.966797707651516,0.7248433354954553,-164.00210840582974,-30.753914445109423,-0.0023125023125023045,0.01064367731034406,0.007739174405841262,-0.003552003552003531,-0.00016650016650016,0.054,0.001493327659994321,2499997089.871152,1240731091.5412211
R1:short,0.0030525030525030417,0.006105006105006083,318.62531910729547,39.10127929803052,51.46615549160278,409.9913170928099,4.439171503685573,51.75620974004424,411.3091598973455,-4.411084249221283,50.72083488577208,407.822520251773,-23.407269161821844,43.91633741725191,332.2859626953018,-74.78446055411199,39.77254662154924,0.002842836176169499,0.4257594257594256,0.39121372454705783,-0.0346937013603679,-0.017069350402683675,0.003,0.07952457419124087,47575441.12193697,21389232.588921662
R1:parametric:-0.5,0.0030525030525030417,-0.006105006105006083,318.5912566224033,39.18825263997242,51.49134587994343,409.6866193432821,4.445501212181914,51.88441746818324,411.1376340838358,-4.3235913314637875,51.67763272993553,408.01347044611254,-23.22452195461703,45.21219731673259,336.91059342074885,-74.63044842392755,42.15252103509056,0.0027441694108360677,0.42706676040009384,0.39012839012839007,-0.035865369198702424,-0.01737768404435082,0.003,0.07939276772610106,50178855.30054309,24232275.643414546
R1:parametric:-0.2,0.007936507936507908,0.013431013431013383,318.9127350068662,39.25583134822582,52.50550826164327,410.35650985332245,4.476240126356289,53.48449046664189,412.06552200202424,-4.373032772939779,51.841602519381105,408.75456993892465,-23.348287402603567,47.02376822006394,334.0989662227728,-74.84976677251811,43.94138160993861,0.007881007881007852,0.42663509330175975,0.39152822486155814,-0.035828369161702595,-0.017316017316017257,0.003,0.07956766073432738,46028123.64316079,22582360.379504353
R1:parametric:-0.1,0.0006105006105006083,0.008547008547008517,316.5031649478931,39.33836092745463,54.30065181779417,409.8504329850507,4.469341704426301,55.5307376763803,411.2036342915461,-4.379407119670329,53.14797738737157,407.3617143695196,-23.363422342832106,46.771683451944995,334.1810493143021,-74.8282009861352,44.23735646895659,0.0009126675793342428,0.4254264254264257,0.39038739038739034,-0.03534120200786876,-0.017137183803850424,0.003,0.07941901308567974,50717587.66187494,22634299.834713303
R1:parametric:-0.05,-0.004884004884004867,0.0073260073260073,318.27790432359564,39.240059052007865,52.92762391216842,409.1808490725897,4.457245891141429,53.23464883339413,410.88423113075964,-4.355150589603081,52.29041846186635,406.79674087584056,-23.228758862627107,45.26485661283309,333.8667703136606,-74.75107443201242,41.953864157227024,-0.00483467150133815,0.4251365918032587,0.39020239020239034,-0.03568036901370222,-0.017248183914850536,0.003,0.07932173382173385,50499481.27034046,23644670.023067873
R1:parametric:+0.05,0.004884004884004867,0.0012210012210012167,317.63566910968643,39.17246164355457,53.37600462945126,408.97082495787095,4.478111520491639,53.69229754739985,410.58762469772887,-4.349431675915838,53.61668375870494,407.0622377541654,-23.16833675379379,46.64959535827404,335.9567877934506,-74.56348475563121,45.010132948406195,0.005395838729172043,0.4248899248899247,0.3898632231965565,-0.035415202081868616,-0.01727285060618388,0.003,0.07933338266671602,48496007.807712466,23632512.472071357
R1:parametric:+0.1,0.007936507936507908,-0.006105006105006083,317.5454455314018,39.235601831473595,53.75228805019563,410.1272899096263,4.436785246842148,54.089209549258825,412.0804071023776,-4.3646209461122405,53.98855775327698,408.43401534580715,-23.256668369723705,46.81604471705339,335.17967495730664,-74.73941639172556,44.15244070478465,0.007689841023174329,0.4263144263144261,0.39070805737472397,-0.03566803566803556,-0.0171803505136838,0.003,0.07955682589015922,49971503.56693614,25601578.00827284
R1:parametric:+0.2,0.004884004884004867,-0.009768009768009733,319.33325631775483,39.21279277593965,53.78281679185808,409.9624845493316,4.455060057562552,54.11776255562859,411.6081232435099,-4.373551994648048,53.358890024429584,408.61752254708006,-23.388366291850843,46.65725673482909,335.13527437015557,-74.94490920619394,43.37547470503485,0.004594171260837911,0.42680159346825997,0.3909547242880577,-0.03534120200786877,-0.017229683896350503,0.003,0.07949554149554149,49689749.21133139,24882840.871415533
R1:parametric:+0.5,0.010378510378510342,0.0073260073260073,317.6453167898207,39.282941272581695,52.25914235801343,409.2299101158129,4.477329102942158,53.32808803097295,410.64224117097547,-4.326876524273794,53.65590982836156,407.6994457270479,-23.15930064892334,46.39340148320912,336.65219705199485,-74.58546094709536,42.273766811160854,0.009879009879009845,0.4254387587720919,0.3905538905538905,-0.03568653568653578,-0.017519517519517466,0.003,0.07935404102070773,51518230.81499645,25083209.485103562
R2:open,-0.01770451770451764,0.0012210012210012167,6.901277448289952,39.24211281473029,-11.180134629869416,8.923387765047885,4.634791652485532,-8.948228688017847,7.004442465144398,11.87286771382084,-11.05130061962279,25.916264960129528,59.82676394237035,0.31262383189479986,69.45001802892617,3.411316320892573,8.874519258415631,-0.0181978515311848,0.04586771253437948,0.008855342188675841,-0.03482936816270182,-0.0005303338636671942,0.001,0.0017462537462537408,2500009276.9217486,1213416276.818834
R2:short,0.00366300366300365,-0.0024420024420024333,318.3845283578676,39.21646589354803,54.26348761473208,409.6822181488757,4.463439975739446,54.49842097682645,411.2224147484309,-4.340631565527671,53.56711408652599,407.8577160575245,-23.124627280804926,45.01503513092751,335.03551433350805,-74.30540002664466,39.63331368856319,0.003231336564669887,0.4261787595120931,0.3911150577817244,-0.03503903503903513,-0.017063183729850342,0.003,0.0794635672969006,43980972.96961533,20979230.75019924
R2:parametric:-0.5,0.0006105006105006083,0.0012210012210012167,318.8068852605165,39.198541778505756,53.669075556207616,410.78697061315796,4.460556234627265,53.42834129647835,411.98807519834725,-4.369399228829359,53.79467265442288,408.365948888376,-23.18010154556712,46.9293514871618,335.02438056916066,-74.3985281311868,42.799620174271986,0.0005735005735005715,0.4266474266474265,0.39160839160839156,-0.035372035372035246,-0.017291350624683913,0.003,0.07963300896634234,47308393.43806925,21432084.833187573
R2:parametric:-0.2,-0.005494505494505475,0.0012210012210012167,317.1260276124629,39.327148932830035,51.59079916569178,409.75222010662605,4.47049991715544,52.84996342230648,411.3997453684936,-4.377667373251064,52.74623846611135,407.78272410341276,-23.382517797150424,46.17390570074178,334.14655137992173,-75.05436726377069,44.04392958156968,-0.005605505605505586,0.42566075899409217,0.39065872399205726,-0.03602570269236923,-0.01708168374835034,0.003,0.07941136641136637,50977413.46972326,23491387.347827967
R2:parametric:-0.1,-0.012210012210012167,-0.006105006105006083,317.8738916628105,39.318376721928196,52.99682082419238,410.133160888916,4.4857571103926865,52.98850319587537,411.5186982333976,-4.375184738859184,52.31546461912241,408.1273143515058,-23.31423093511446,45.02871461217917,333.86895924791844,-74.74083013359876,42.993389418562714,-0.012086678753345376,0.4264439264439267,0.39126922460255786,-0.03550770217436894,-0.017322183988850604,0.003,0.07948421948421946,52033221.19688672,23648720.522924554
R2:parametric:-0.05,-0.010378510378510342,-0.006105006105006083,318.49487499768736,39.14773587066527,52.86099074346041,410.88398712819424,4.446366734501272,53.002127679773096,412.2360076807416,-4.388229649696221,51.805575336022386,408.8913761559124,-23.353777890152944,45.54828689369017,334.65891384754036,-74.82291566429441,43.75006412873156,-0.010304510304510267,0.4266597599930936,0.3913493913493913,-0.0355940355940355,-0.017254350587683858,0.003,0.07962560895894237,49467870.05662271,23749988.956687547
R2:parametric:+0.05,0.001831501831501825,-0.0012210012210012167,318.81305270832826,39.102833598698794,56.30973508722123,410.4131263155275,4.432940489503397,56.71157299672739,411.890464080459,-4.366467768904318,56.78633597213156,408.4577316906164,-23.356149079296085,50.039156023524626,335.34219787187686,-74.90360662305949,46.227054003391004,0.0016588349921683196,0.42683242683242667,0.39133705800372465,-0.036161369494702944,-0.017081683748350673,0.003,0.07951492951492949,46998395.59846392,22837645.78846022
R2:parametric:+0.1,0.0030525030525030417,0.0012210012210012167,317.9005994169619,39.22422005243977,52.18385576241327,409.96130488218506,4.460154667499934,52.41245863496158,411.4152049697769,-4.3433234002861765,51.45454461367482,407.9778810066757,-23.253685381906386,45.17880859233678,335.5253049870646,-74.75432378902279,42.53895986627199,0.002448169114835773,0.42603075936409296,0.390708057374724,-0.035692702359368916,-0.01735301735301729,0.003,0.07946761880095213,52269374.87781228,24392216.126482774
R2:parametric:+0.2,0.0,-0.0012210012210012167,317.5790229845171,39.28771465284677,54.34180488622796,410.3640078886836,4.473324134698702,54.75192084359384,411.6751837365566,-4.368674774527853,53.628495428422546,407.7880524829392,-23.32116455242419,46.84675265972505,333.73350910868277,-74.52381204231824,42.699718820829304,-0.00024050024050023961,0.42522909189575864,0.39107805774472437,-0.035550868884202266,-0.01712485045818373,0.003,0.07953649436982768,50066550.802266665,24957559.352062162
R2:parametric:+0.5,0.011599511599511558,0.006105006105006083,316.3245536332068,39.482758636661615,52.322023493479044,408.73687841206845,4.487233534276909,52.38578383935173,410.2256811511442,-4.374660728976068,51.272367668428664,406.52859572516724,-23.311272518086877,44.469998727569624,333.688020470486,-75.11155698355898,40.846439700238946,0.011883178549845174,0.42463709130375826,0.3894747228080562,-0.03580370247036901,-0.017303683970350578,0.003,0.07921134421134425,54046586.516390346,26497544.11259129
R3:open,-0.012210012210012167,-0.00366300366300365,319.4210177083776,39.294575530918266,43.792807373104175,411.71360994378153,4.460576657739521,44.068192345041794,412.85075790271264,-4.386583336180193,45.14036044790727,408.6339883238396,-23.32919851213006,44.53427246759859,335.4542212957696,-74.62822258734568,42.65577004335242,-0.012604679271345893,0.42706676040009356,0.3929712263045598,-0.03504520171186869,-0.01714335047668375,0.003,0.07978588695255356,52372030.220498614,24200433.13749665
R3:short,0.0030525030525030417,0.0012210012210012167,1.7867236103056745,41.259907189166796,-22.917625962677075,2.5018624318296703,21.9032668237334,-19.993384624221527,16.204346716660922,77.7152009574922,-3.7660918830417462,93.56254138938392,65.60006804768248,11.463185886026677,286.21104448103733,-21.009170781912424,21.174932571287812,0.0028798362131695365,0.15166315166315156,0.0023063356396689633,-0.15014615014615004,-6.16667283333816e-05,0.002,0.0007185407185407174,1850932.010313919,13481478.043622624
R3:parametric:-0.5,0.009157509157509125,0.0024420024420024333,317.42733198219935,39.34777139599564,45.839694087265144,409.4956488478986,4.479884181986144,45.83819490385194,410.6625168678189,-4.319061948262457,46.13719398899316,407.48854522472004,-23.1325715025363,45.25233586107653,335.5119151116721,-74.72974911072747,41.32032003601309,0.009311675978342612,0.42551275884609224,0.3905292238625574,-0.036241536241536115,-0.017112517112517107,0.003,0.0793496071829405,47040945.23607764,24348859.257346395
R3:parametric:-0.2,-0.012820512820512775,0.00366300366300365,319.13508324676127,39.18846268910688,50.96868432082509,410.32419552515273,4.448443004628227,51.17160008502145,411.66737445041525,-4.3392610880903355,51.60144005725604,408.82075818706085,-23.2320394901015,47.22072121364829,335.67590026976944,-74.89080777350998,44.546110854244255,-0.01241351241351237,0.42689409356076047,0.3912260578927249,-0.03605036938370259,-0.01720501720501759,0.003,0.07953579753579751,48863128.11384945,22838621.321560223
R3:parametric:-0.1,-0.007936507936507908,-0.004884004884004867,319.02149310659945,39.34987400602716,54.98037839776843,410.2989535323621,4.4624724394394075,55.76227793774647,411.6785395962484,-4.3538305552268355,54.791083706379965,408.1231699123168,-23.34243560298976,48.304926866207666,335.84375993866183,-74.95657314803506,45.76223012176989,-0.007523340856674164,0.42624042624042624,0.39122605789272447,-0.036179869513202935,-0.01722968389635051,0.003,0.07954628704628709,45268911.4253669,22969679.97437972
R3:parametric:-0.05,-0.00366300366300365,0.00366300366300365,316.6743388876055,39.53953419338498,52.01514626897941,409.80858746722924,4.497644678002407,52.56749202674672,411.36843954425706,-4.371748333839216,52.71401144750777,407.6902743166379,-23.302489245566854,46.69954074164985,334.47789542530944,-74.81167729853018,44.53231303148202,-0.003909670576337229,0.42562375895709237,0.3903318903318903,-0.035945535945535824,-0.01714951714951709,0.003,0.07941031807698476,48715709.332103014,22799587.76772272
R3:parametric:+0.05,-0.016483516483516425,-0.0012210012210012167,318.0646198095235,39.10774380655007,54.264293569352304,409.5290424249105,4.437855912320463,55.29573847720411,410.70650306891883,-4.370413181166981,53.24739558583532,407.9353776193754,-23.258986485281213,46.849223363726374,333.7960082532455,-74.79101768144874,43.8406195337449,-0.016964516964516903,0.42566075899409217,0.39031339031339024,-0.03574203574203563,-0.017205017205017145,0.003,0.0793800890467557,48138206.611649424,23750756.327123035
R3:parametric:+0.1,-0.010378510378510342,-0.0012210012210012167,318.7891976429769,39.14481324703049,55.807482363806564,410.1013365754976,4.436975534804654,55.960059770155084,411.3997576283524,-4.389628611099182,55.264697876525844,407.70164937006257,-23.412801877522575,47.316537532458604,334.18458103596623,-74.82954915643732,43.29270605738076,-0.010526510526510489,0.4254079254079255,0.3913062246395579,-0.03504520171186829,-0.017192683859350466,0.003,0.079466847966848,47720851.14163253,24426677.01214959
R3:parametric:+0.2,0.005494505494505475,0.0012210012210012167,318.213734196248,39.150633796096145,50.74105874422541,410.0261265759586,4.460440451813126,51.67583351214524,411.390837563643,-4.375512783175218,51.55084693131306,407.68527967641074,-23.282244403200046,44.238463567382816,335.68387564774423,-74.80487656567189,41.11410451606625,0.006160506160506138,0.42601842601842627,0.390708057374724,-0.035285701952368506,-0.017242017242017196,0.003,0.07951396751396757,51770097.584970206,24693343.21957301
R3:parametric:+0.5,-0.023809523809523725,-0.0024420024420024333,317.73852411982966,39.38063557778805,52.13501938941857,410.60944475073757,4.477895315109354,52.5948517152591,412.1573873336556,-4.416932501625491,51.36921114319073,408.3927911899111,-23.516405960192504,44.97617914754244,332.90810179834375,-75.1031670642018,43.06633453542783,-0.024167190833857415,0.42601842601842604,0.391380224713558,-0.035082201748868516,-0.017544184210850827,0.003,0.0795818687485354,51867389.33426528,24230659.98502149
R4:open,0.017094017094017033,-0.01098901098901095,318.59153564657987,39.29108938670898,44.945059119335625,411.4825574808182,4.463699570736923,45.08491826914652,412.652972736111,-4.391631393293337,45.70853531836717,408.59986245743625,-23.280245470037833,46.543360331558674,335.3021752819424,-74.78557077335805,44.39599583778386,0.017081683748350354,0.4268200934867604,0.3924408924408924,-0.035026701693368266,-0.017094017094017262,0.003,0.07974254140920815,47323447.29480097,22693493.256869096
R4:short,0.0006105006105006083,0.0012210012210012167,2.3488283833949724,41.14386653666855,-20.542214836251734,3.227630975872274,21.939763842411264,-17.78106220855215,20.186172127489996,77.06292141093594,-1.8576355377612144,113.96007467699147,63.121262156296496,13.176073205543634,328.15252024412695,-25.694662770509183,22.36242441239571,0.0006228339561672873,0.1819045152378488,0.003034003034003023,-0.17915417915417897,-0.00012333345666679096,0.002,0.0008815752149085455,1941573.8774932155,14266123.057059817
R4:parametric:-0.5,-0.0006105006105006083,0.006105006105006083,316.89078997345393,39.18851055726806,43.48761149821595,408.8667586703851,4.4752393894681735,44.28716174881949,410.07154364359343,-4.3604616475100855,45.300952522901994,407.2075595855338,-23.277510701097274,44.27193236482296,333.78604590809846,-74.96332528551119,43.56334280326412,-0.0011531678198344825,0.42545109211775906,0.38954872288205616,-0.035988702655369194,-0.017044683711350317,0.003,0.07922093955427295,51663649.36416726,23568523.058511026
R4:parametric:-0.2,0.0146520146520146,0.0012210012210012167,317.81314663063165,39.27427981231688,52.12373925629256,409.82210026295786,4.467403812132261,52.94653878831237,410.96733955048364,-4.379593719388076,53.11801089100797,407.9195209094481,-23.32516936608244,47.02916275506256,334.860435772041,-74.76763689866429,44.41147742907067,0.014380681047347663,0.4262774262774263,0.391158224491558,-0.03486636819970141,-0.017353017353017294,0.003,0.07946963530296863,45434492.95901804,24380008.524305623
R4:parametric:-0.1,0.010378510378510342,0.004884004884004867,317.06871524574467,39.48827915103419,54.97069086802382,409.9096010020751,4.500948839477357,55.08186878961374,411.105838331319,-4.328752390333758,55.18367494584323,407.2160540659259,-23.16393695600891,47.78134185287636,335.3012937120277,-74.5744055355492,45.26974105250065,0.010828677495344123,0.42581492581492586,0.3907142240475573,-0.036469703136369894,-0.017291350624683895,0.003,0.07947051713718384,49162699.234872624,23454502.709137492
R4:parametric:-0.05,-0.01098901098901095,0.0012210012210012167,317.3997366847144,39.410236004347006,52.58778652155874,410.4623980193168,4.489423321502445,53.77421219061914,412.0300917837004,-4.388201174581569,52.69989163757433,408.2078141443652,-23.35683086895871,46.43095037715963,333.3141269559415,-74.96053795115307,44.01983723905383,-0.011118511118511079,0.42629592629592655,0.39152822486155836,-0.0350822017488683,-0.017198850532183972,0.003,0.07957162590495923,50171843.867359824,23725292.234185904
R4:parametric:+0.05,-0.010378510378510342,0.008547008547008517,317.6109967963415,39.23590635572718,53.24973246111571,409.9524216024421,4.46583839896814,54.20377217622121,411.54182990421987,-4.377071536200753,54.735386376618436,408.34376133030986,-23.287953157399254,46.28843222164379,334.550181683678,-74.60040299639743,42.74006948316235,-0.01027984361317691,0.42654875988209306,0.3907697241030574,-0.03510070176736832,-0.017168017168017122,0.003,0.07947928614595279,50264706.32077832,23655757.451966908
R4:parametric:+0.1,0.007936507936507908,-0.00366300366300365,318.69313245674863,39.02723347408156,53.37134902605492,409.5252804533423,4.4171678955612075,54.10353466066695,410.80750069867645,-4.37079778686535,52.917411550222305,407.78591547893205,-23.29332041551847,46.59006666331536,335.8157754653982,-74.68804125108191,43.6438759989954,0.008047508047508018,0.4263884263884262,0.3903503903503903,-0.03547070213736912,-0.017180350513683787,0.003,0.07935783969117301,47177147.13403442,23168141.155261107
R4:parametric:+0.2,0.006105006105006083,0.004884004884004867,318.1064697357871,39.15438705102696,54.58884304358618,409.2717072954704,4.445726128435659,55.37894166022156,410.7877548270268,-4.357589921677475,53.51907269776996,407.5483555700056,-23.22972081930649,46.12775455408776,335.4360363304122,-74.65238780229922,44.33572401743374,0.005883005883005862,0.4258950925617593,0.3903133903133903,-0.036019536019535905,-0.017192683859350688,0.003,0.07935012518345849,49261448.90031539,23999221.815799132
R4:parametric:+0.5,-0.0030525030525030417,0.0012210012210012167,318.72996824043247,39.31195047098912,51.956310597611804,411.55864896583313,4.470762228988149,52.40854918909592,412.719523242391,-4.387053577786657,51.847785152519734,408.81489499052896,-23.350175802452725,46.27310083844465,334.1384351435111,-74.86816402047629,43.771145060506534,-0.0028675028675028574,0.42684476017809375,0.39210172543505917,-0.034940368273701575,-0.01715568382235043,0.003,0.07976303942970607,50283627.1246606,24373115.13538139
C1:open,0.005494505494505475,0.00366300366300365,318.3392748282381,39.290091168360455,52.89122011414775,409.22536280265456,4.457845202181061,53.20973022027292,410.8071243303274,-4.247017144639108,46.51635653315953,408.5224858314283,-22.85401541765001,37.422419203336275,336.89003762799933,-73.92584397830642,33.587953568860634,0.005506838840172154,0.42657342657342684,0.3901653901653901,-0.03654370321036976,-0.017254350587683858,0.003,0.07933248233248232,48243642.36724446,23826163.899012607
C1:short,0.007936507936507908,-0.00366300366300365,1.674007768767708,40.88930470154243,-23.48363593232736,2.2947212909785337,21.84213669509395,-20.74436525149221,15.088055725126132,77.89821106341323,-4.386073060501303,94.88428397380017,70.40914910295253,11.584981333077298,285.8334459687444,-19.56493976153404,21.163630243824322,0.007381507381507355,0.14827148160481485,0.002022668689335351,-0.14603914603914595,-0.00020966687633355852,0.002,0.0006406309739643032,1995861.2912908723,14943801.08550347
C1:parametric:-0.5,0.001831501831501825,-0.00366300366300365,318.0490085414264,39.31641749142411,53.598910949697576,409.8219495892583,4.48283887458593,54.7911220643136,411.55186609175854,-4.291975177591328,50.22914128088476,409.5028790651637,-23.10171884314047,43.4401659065425,335.75182156014813,-74.59992696761414,41.13174156483123,0.0016465016465016407,0.4277697611030942,0.39090539090539084,-0.03623536956870278,-0.017094017094017477,0.003,0.07946190846190845,50761341.09845777,23747319.226158433
C1:parametric:-0.2,-0.015262515262515208,-0.00366300366300365,318.4154050106696,39.00734561948605,53.15399636064156,410.34651927918884,4.429785445176359,53.66698360941306,411.7967979970577,-4.327979404298012,53.019481516669515,408.42917609302344,-23.148745699027884,47.19110929276053,334.35356488193906,-74.69232246328218,44.428097974315286,-0.014793848127181408,0.42669676003009316,0.39097939097939094,-0.03575436908770273,-0.01731601731601727,0.003,0.07955147321813988,52183842.71425131,22876924.195473853
C1:parametric:-0.1,-0.014041514041513992,0.0012210012210012167,319.1459084764873,38.90527480393673,52.6946330141335,409.8794603397952,4.406434685253658,53.403694011183816,411.1331014340569,-4.385106687112604,52.15019518111931,407.2265807627943,-23.38212721535807,45.276067225929275,333.11552884995143,-74.88915134489534,42.86448095946592,-0.014485514485514434,0.4256484256484255,0.3912753912753917,-0.03534736868070189,-0.016983016983016935,0.003,0.07945480445480445,53483924.52548927,25043492.23002623
C1:parametric:-0.05,0.019536019536019467,0.0012210012210012167,318.324473125577,39.30901795248831,51.91353279401123,410.7543438047984,4.469068673200438,52.08156139285819,412.36591594620756,-4.375911078744042,52.5716194727525,408.6308618994676,-23.367783700293376,45.804119843262754,334.309040926653,-74.8783954396173,43.50305708171601,0.019073519073519007,0.42674609341276015,0.39131855798522464,-0.035754369087702305,-0.017439350772684055,0.003,0.07957028773695438,49697042.81505936,24805161.359053284
C1:parametric:+0.05,0.02258852258852251,-0.0012210012210012167,317.8260557422965,39.28085986723236,53.9802263858666,410.5209625627365,4.48126027659251,53.976866280469125,411.8304477912466,-4.36599973543535,53.91243794237461,407.7647993819928,-23.231809226205627,46.50789669250751,336.787588486,-74.57177463816147,44.437021123735825,0.022397355730688986,0.4260739260739259,0.39148505815172474,-0.03552620219286917,-0.01745168411835094,0.003,0.07955780022446693,51782295.613872014,24338614.151370127
C1:parametric:+0.1,-0.00366300366300365,0.006105006105006083,317.336626460863,39.182190933110235,52.49944446707743,409.456205745385,4.456350923206173,52.13081850756066,410.8305247670497,-4.344224528657877,52.75954826906305,407.670500572997,-23.239695146729858,45.39566596677977,335.1540524240287,-74.99925285305432,42.624782467866325,-0.0031573364906698127,0.42612325945659263,0.3904613904613904,-0.03582836916170282,-0.01721118387785093,0.003,0.07932280682280682,49417986.613469884,22369757.547024306
C1:parametric:+0.2,0.004884004884004867,-0.0012210012210012167,318.0498811108628,39.130149370454276,52.906627871558,409.4261170689389,4.445138938654971,54.640934810984206,411.1068751032318,-4.346562171067519,54.146016952583324,407.2965968817719,-23.186174360323143,47.14471140009826,335.6088782318262,-74.57709116706076,44.06711351861317,0.004421504421504406,0.42619725953059295,0.3902208902208901,-0.03544603544603533,-0.01722968389635051,0.003,0.07934768318101651,48504747.435218126,23729502.919373013
C1:parametric:+0.5,-0.005494505494505475,0.008547008547008517,317.75775342565214,39.266003107634695,53.77134612150823,410.604117642822,4.461147819974317,53.8416579372901,411.7469885537631,-4.3954182951102805,50.64386891171347,408.1334851796339,-23.320742677500668,41.908019096792785,334.03489627508793,-74.8800835638825,38.64287095606391,-0.0059755059755059545,0.42568542568542594,0.39097939097939094,-0.034607367940701586,-0.017254350587683875,0.003,0.07954714421381087,49148738.427813545,23805410.040394712
C1:cap_degradation:+0.2,-0.0073260073260073,-0.008547008547008517,318.46653580035763,39.24046977426408,52.84693052494822,410.621699311871,4.447358841809555,53.75457823102533,411.9507139985494,-4.316801419400946,53.732411837800996,408.2296053903313,-23.06080420930771,47.529091823518016,335.52483134164277,-74.64648565836193,45.784649200345456,-0.006956006956006931,0.42677076010409326,0.39117055783722443,-0.036500536500536813,-0.017340684007350782,0.003,0.07963743047076383,49451045.8646347,22176515.9804766
C1:cap_degradation:+0.5,-0.0006105006105006083,0.01831501831501825,317.8385511745098,39.4563974621053,51.38511853350198,410.2672640326723,4.493478618936297,51.583753544660276,411.80024693335633,-4.310303938469596,49.43630903498906,409.55511809688954,-23.154392010297848,42.90847146034707,334.7750357688426,-74.69912559847214,40.596006631206095,-0.00022816689483356068,0.4269865936532603,0.3913247246580582,-0.0365930365930369,-0.01733451733451727,0.003,0.07953373786707119,49798339.787715435,24552921.549781922
C2:open,-0.001831501831501825,0.004884004884004867,318.1479135616689,39.26163197831049,53.11454554193918,409.2094278352174,4.476471845567556,53.250234635807104,411.22238630744,-4.294733928731139,46.70535790101393,408.68008614072284,-23.069092225338515,37.20299243015848,337.2069920750313,-74.30176537416284,33.00739555932307,-0.00165266831933498,0.42659809326475995,0.3899310565977232,-0.03647586980920323,-0.01712485045818396,0.003,0.07934184950851617,51260465.52429836,25783131.880827747
C2:short,0.016483516483516425,-0.00366300366300365,2.349991389498477,41.058604478629846,-20.53738826841533,3.1801455279445463,22.12701668204139,-17.90980499887711,21.042628024557168,76.88538681482581,-1.4965385801196889,119.95050046871913,63.4486383383393,13.621179424084326,327.6824767788566,-28.12574448535115,22.350165413937724,0.016939850273183548,0.1848398515065184,0.003132669799336456,-0.18229918229918213,-0.00019733353066686554,0.002,0.0008963382296716216,1982606.9029890848,14005968.731068099
C2:parametric:-0.5,0.00366300366300365,0.00366300366300365,319.17867521112316,39.120724081289424,54.5491829499107,410.66613218272477,4.457071792267961,54.83050380611962,412.07696135898584,-4.323735051997588,50.468790756581896,409.3427210498274,-23.076601059158946,43.32399464996402,336.73211745164247,-74.37121687832818,40.47637059522541,0.0034780034780034653,0.42762792762792745,0.39127539127539124,-0.03556320222986878,-0.017279017279017213,0.003,0.07959298725965394,49943536.142859854,23988362.386294007
C2:parametric:-0.2,-0.010378510378510342,0.006105006105006083,317.96979001298894,39.29386206863847,53.131733378057945,410.65614441696937,4.481515346369107,54.387180676155026,411.94699662987875,-4.3157499373479355,53.64849257684787,408.9391103656395,-23.153474242974173,46.739561861325996,336.2046787410421,-74.8783738559517,45.49959254110988,-0.009872843206176504,0.42680776014109373,0.39155905822572484,-0.03648203648203635,-0.01736535069868396,0.003,0.0796057152723819,48298686.33369451,22803424.088571172
C2:parametric:-0.1,0.001831501831501825,-0.00366300366300365,317.4479972452538,39.27952828010103,51.974780481696484,409.5226429961582,4.473883214285865,52.0192287289305,410.8968292334964,-4.350227511589731,51.80229876860044,407.8859712429974,-23.210536510926545,44.886184547537724,335.86551511746916,-74.90115900499902,41.62091672702408,0.0016341683008349616,0.4257964257964256,0.39044905711572375,-0.03605036938370303,-0.017328350661683933,0.003,0.07935705035705033,50299924.56555768,24219042.27106794
C2:parametric:-0.05,0.0006105006105006083,0.0012210012210012167,317.4700500039692,39.32361764869629,52.45760807453984,410.27587833264,4.46700239344832,52.513851582228206,411.7447146586631,-4.304021722190499,53.135527837287036,408.4296859973295,-23.10850040112613,46.91491480410417,336.21176164103235,-74.45280075266065,44.6365670610128,0.0006721673388340032,0.42685709352376044,0.3911027244360577,-0.03590236923570246,-0.016970683637350242,0.003,0.07953762287095618,48930385.45485276,23031939.68391578
C2:parametric:+0.05,0.006715506715506692,0.0012210012210012167,317.4909343967805,39.40977693240323,54.441117556365484,408.44723952518257,4.48086010395402,54.972632550207905,410.3013587615457,-4.361065509391893,54.49510253004976,407.3140607661118,-23.197369821835665,45.71314013098376,335.4591219625009,-74.51951988283069,42.89531479326879,0.00708550708550706,0.42534009200675893,0.3900050566717233,-0.03561870228536926,-0.0172420172420175,0.003,0.07921141821141821,47877104.67752935,23651543.391092595
C2:parametric:+0.1,0.0012210012210012167,0.00366300366300365,317.41752191803823,39.478803731046156,51.13573516027458,409.67477447470276,4.493693133586124,51.44644560634002,411.2564310610694,-4.390530368928866,51.49738709138555,407.25943114852566,-23.411907123081434,43.896105446551346,333.1949737936368,-74.72574281897596,41.11465125158831,0.0013381680048346668,0.4252167585500919,0.3907697241030574,-0.035020535020534885,-0.017223517223517164,0.003,0.0794047495714162,53460442.64592193,25050126.908058874
C2:parametric:+0.2,0.004273504273504258,-0.006105006105006083,318.97852100060305,39.21747271884996,56.51856171256149,410.42491862224813,4.441997713559024,56.6956872844812,412.0680882878189,-4.402185224178387,53.862082421629324,407.9040334953401,-23.46364470639488,45.64004301820462,333.1834946303903,-74.99718940153691,42.42521523833094,0.0046065046065045905,0.42583342583342565,0.391744058410725,-0.03492803492803481,-0.017217350550683838,0.003,0.07954180387513717,48973090.300240554,24083754.526349314
C2:parametric:+0.5,-0.004884004884004867,-0.006105006105006083,318.1651495325024,39.19412656063446,53.046439684088796,409.25373810740615,4.4480473841703265,53.533531019040325,410.83052042207214,-4.387874963718429,49.32041217014023,407.0510211844695,-23.325570384159285,41.89960693364685,334.5253079047655,-74.68331542939714,40.27026925948675,-0.004699004699004682,0.42468642468642454,0.39012222345555675,-0.035076035076034955,-0.017063183729850342,0.003,0.07936487586487585,51914969.03603216,23781929.5817135
C2:cap_degradation:+0.2,0.014041514041513992,0.0,318.62102305080293,39.34384325003212,53.42133527446671,410.50800548612335,4.474577998438288,54.01578293133092,411.9990964441571,-4.318651041967806,53.36530855753685,409.2964949785089,-23.09416395560544,47.051256374363746,337.9554533947842,-74.49677452857455,44.90546715114135,0.014460847794181076,0.427510760844094,0.3917008917008916,-0.036093536093535966,-0.017272850606183887,0.003,0.07965324798658129,47136372.3952041,22711905.22213085
C2:cap_degradation:+0.5,0.005494505494505475,0.004884004884004867,316.69177802214745,39.33080607797048,52.86529512236612,408.2448369510221,4.456914245196401,54.24939815037033,410.0556333732691,-4.332558237967937,50.90560516211995,407.10716880027826,-23.15249372140428,43.58187932985754,335.1593276592496,-74.67848882932768,41.345175476754164,0.005463672130338777,0.4256484256484255,0.3890060556727223,-0.03615520282186936,-0.01702618369285029,0.003,0.07919116685783355,48601055.63091764,24554251.30074168
R5:open,-0.004273504273504258,-0.01098901098901095,42.34088377948359,-116.28961920541282,40.000038152214614,53.420953311302206,-144.97940001990597,40.00009611338914,42.46713606859864,-27.414970944065214,40.00009158337724,31.099631475081086,-66.29293471375311,40.00007850249592,27.419290212009617,78.94296323491464,40.000068370457015,-0.034058534058533936,0.06370173036839688,0.00043166709833376143,-0.12253178919845586,2.466669133337207e-05,0.026,4.5954045954049174e-05,4508182.2196366675,975703.6552718962
R5:short,-0.0024420024420024333,-0.00366300366300365,173.8503647985262,39.415998050482585,52.45573271876782,224.01211032067425,4.4655671352811535,52.45838193994696,224.99286654258353,-4.410889483912222,51.46923834485983,223.21033784659855,-23.397226548814388,45.4668138810881,182.76378941364226,-74.88546077487376,41.969716957431515,-0.0022878356211689464,0.23309406642739955,0.21390338057004715,-0.01933251933251926,-0.009515176181842805,0.003,0.04344216894216893,29150305.79293789,13615550.453878477
R5:parametric:-0.5,0.0030525030525030417,-0.0012210012210012167,246.38910387229205,39.32133964190879,52.06636625883213,317.5612705370636,4.472561175809141,52.487730516949114,319.19064374624406,-4.3301403402874925,52.27368533278208,316.6725866388993,-23.17278648332705,45.48548543660157,260.54589731637793,-74.6903857897301,42.05895524483389,0.003354670021336676,0.3306261639594972,0.302647969314636,-0.027811694478361487,-0.013517346850680137,0.003,0.06158733242066575,37365605.20681367,17431658.84695233
R5:parametric:-0.2,-0.006715506715506692,0.006105006105006083,289.1171909132373,39.279927007598666,52.806504472207365,373.39672494749107,4.457368813699725,52.74071073766822,374.72006984090007,-4.385977423539347,52.496551988890246,371.39452076895185,-23.3066093257979,45.61031645815524,305.59812536667994,-74.79583840563924,43.53557738025904,-0.0075418408751741816,0.3878097211430544,0.35654468987802324,-0.0324736991403657,-0.015540015540015495,0.003,0.07237878171211505,43116433.5120101,21132932.367964942
R5:parametric:-0.1,0.0006105006105006083,0.0012210012210012167,303.8018240307821,39.267713372043694,52.13377893607874,391.2218636036138,4.482288477884201,53.02916684677028,392.6497259757201,-4.349302758949796,53.413504123687794,389.63621666062033,-23.17129727044688,46.991851019671024,321.24971549666134,-74.62023555882966,43.39414780718987,0.000992834326167656,0.40727174060507426,0.3737743737743738,-0.034225034225034104,-0.01652668319334978,0.003,0.07589734956401623,46817553.39617854,22748367.56469442
R5:parametric:-0.05,0.011599511599511558,0.00366300366300365,311.0143406035997,39.38860753831114,53.169834363508166,400.8039958558612,4.475567660458541,53.45130518894979,402.0430092305603,-4.356642174300026,53.2738850561861,399.3685419879927,-23.21691962590502,46.81020907333502,328.7823485346308,-74.98452379105827,46.80568253082092,0.010612843946177241,0.41729875063208377,0.3823213823213823,-0.035396702063368604,-0.01683501683501676,0.003,0.07772179672179672,46484760.06203946,21013080.743652616
R5:parametric:+0.05,-0.00366300366300365,-0.008547008547008517,323.55616568602267,39.244416788756936,52.850977605387335,417.45365825684127,4.4505391367112965,53.25913118878151,419.2883025776679,-4.378447671114884,53.43732583090956,415.9444051529392,-23.315813857329236,46.455897530982426,341.16796696068195,-75.23440717202286,44.00428609199351,-0.003804837138170458,0.4342694342694343,0.3980155646822313,-0.03571736905070226,-0.017377684044350653,0.003,0.08097178747178752,51980412.12630364,24274059.397315025
R5:parametric:+0.1,0.015262515262515208,-0.008547008547008517,331.33872136333616,39.298368292485456,54.272908214254656,427.31260832778145,4.4598117994380715,54.27344457801398,428.88891044803034,-4.3495149910887685,53.27278044571735,425.4303165522119,-23.25887349088149,46.8006437102233,349.6236543721504,-74.75310458268281,43.348991861464235,0.01512684846018174,0.4443581110247779,0.4072840739507405,-0.037160370493703694,-0.017945017945017884,0.003,0.08283346283346285,52144375.90780608,24982116.689231362
R5:parametric:+0.2,-0.016483516483516425,0.0012210012210012167,346.1655786296176,39.335800821860076,51.639060339893035,446.51618067970037,4.469309614381311,51.98620743354997,448.08898638999506,-4.357832091181009,53.30174769425521,444.2170273630693,-23.291434312556994,46.384923111248995,365.52337512984525,-74.4088099750543,43.249939161855394,-0.016286182952849563,0.4641901308567976,0.4256360923027588,-0.03878837212170533,-0.01875901875901869,0.003,0.08658350291683631,55227037.927770086,25427360.388354145
R5:parametric:+0.5,0.0,-0.00366300366300365,389.46626156838244,39.364234066969885,52.0328883532634,503.86713995795395,4.469138189059109,52.215413723117926,505.23798484082283,-4.365045020445804,52.076475025466976,500.8901467106447,-23.179979251861926,45.785449001365016,412.00618913308205,-74.73276940895325,43.80108660122297,-6.1666728333394804e-06,0.5234456901123568,0.47984731318064655,-0.043962210628877146,-0.021003687670354272,0.003,0.09766971300304636,64098089.95481817,29046590.151204403
R6:open,0.004884004884004867,0.015873015873015817,1441.4837978851047,37.794232583178925,39.99998165746119,2295.0872997649176,3.2724950989694026,40.0000913500204,2499.894377240229,-7.41591121740227,40.00005191377138,2499.903200023685,-12.094506352589772,39.99990885999924,2499.9231537774385,-44.98666938503328,39.9998754728721,0.007128673795340452,0.09933893267226601,0.0006536673203339852,-0.00408233741567085,-0.0003515003515003473,0.021,4.597254597254624e-05,1383920048.0960002,244556325.36961794
R6:short,-0.006715506715506692,0.0012210012210012167,174.31736707865753,39.276334194265765,53.17144592443931,225.1965238461531,4.453911191695261,53.593149430062034,225.83622351249025,-4.355488167128027,52.484702182998355,223.7352679112576,-23.2382565858002,45.11980285683431,183.79135788117054,-74.36343962437601,42.166603282958725,-0.006222172888839533,0.2338895672229006,0.21451388118054798,-0.019301685968352578,-0.009472009472009438,0.003,0.04362847029513697,27155091.507788632,13834966.640500288
R6:parametric:-0.5,-0.02136752136752129,0.0012210012210012167,245.37069320134515,39.27807226100094,52.179212077980864,317.6510735760817,4.470264696256832,52.69976571678327,318.7388581119638,-4.379000935528513,52.51831414097296,316.0766285535385,-23.285183012200285,45.26898521570946,259.3459898111851,-74.47330318343175,43.05081029656401,-0.0210098543431876,0.3293496626829962,0.3025369692036361,-0.027145693812360382,-0.013307679974346592,0.003,0.06154563954563959,39857078.28592887,19129592.037111092
R6:parametric:-0.2,0.004273504273504258,0.006105006105006083,289.6668950560267,39.20432959788229,52.98738644831395,372.4773067070488,4.438890618152525,53.061898338125,374.0437506965412,-4.3895155899214195,52.91420912329757,370.75124645610566,-23.43227705173375,45.97263311473745,303.4621088510649,-74.98298825122076,43.507245291945125,0.004335171001837653,0.38683538683538676,0.35511402178068807,-0.032251698918365664,-0.015564682231348846,0.003,0.07215815049148384,45861976.20389994,21997501.409551244
R6:parametric:-0.1,-0.006715506715506692,0.0012210012210012167,303.48658083457656,39.15223733650918,52.140164831641016,391.49944837872954,4.442913047891456,52.57149267903503,392.74873574383014,-4.374232734975241,51.97977541782346,389.3977862732475,-23.22107869985216,46.12504095898642,320.37243731822446,-74.64049563442974,42.531660674081344,-0.007184173850840492,0.40666740666740697,0.37320703987370657,-0.033620700287366835,-0.016341683008349615,0.003,0.07589959423292757,48255000.07284998,23040980.177495293
R6:parametric:-0.05,0.001831501831501825,0.006105006105006083,311.2481621880168,39.328341157590586,53.425161747052634,401.5569287895542,4.466474976679005,53.69350711927122,402.7529961489279,-4.368277536574601,53.377036972413364,399.648251333033,-23.22704525999528,46.27533303466847,328.0054743191502,-74.52417827811432,42.59278075285728,0.0016341683008349616,0.417520750854084,0.3827777161110494,-0.03437303437303424,-0.01678568345235007,0.003,0.0778283814950482,49602274.49239929,23830945.630045123
R6:parametric:+0.05,0.005494505494505475,0.00366300366300365,324.57748614814795,39.24362177133421,52.900937821688785,419.8955119783942,4.46452968350602,52.98287195663054,421.2959147775628,-4.3367021800413745,53.40759235634171,417.8851564271131,-23.056434958909897,46.69297844875263,344.1781878059963,-74.55530942415183,44.42942063600093,0.006086506086506065,0.43630443630443655,0.4001924001924001,-0.03730837064170382,-0.017513350846684116,0.003,0.08144153377486711,52561165.566063,23446407.411152653
R6:parametric:+0.1,-0.0006105006105006083,-0.0024420024420024333,331.18422429769714,39.34965856469856,53.091135079655054,428.39826149518774,4.482924740838923,53.62554079683309,430.01171013303883,-4.3696944853646595,53.29050460796979,426.5916749956324,-23.306714235695814,46.04115992296134,350.75816484329516,-74.92716142675168,44.70320188978468,-0.0004871671538338187,0.44555444555444573,0.40830774164107486,-0.03741937075270417,-0.017834017834017772,0.003,0.08304012037345378,50915062.59441809,25422082.325692087
R6:parametric:+0.2,-0.0006105006105006083,0.00366300366300365,346.37862267400726,39.34118469798882,49.57744230231077,446.1427826070581,4.473032439551508,51.28095182955655,447.5224155820042,-4.36508199803272,51.085666996271584,444.24019696881464,-23.26366957693606,45.477932695612566,364.37841910438533,-74.57537476990572,43.423841720503944,-0.0007708341041674347,0.4640852974186305,0.42577175910509246,-0.038695872029205436,-0.018759018759018687,0.003,0.0864854158187491,55325820.70682812,25719053.235867552
R6:parametric:+0.5,-0.011599511599511558,-0.0012210012210012167,390.8734879036869,39.2149497928271,55.19124656744098,503.06243802675755,4.434824330933687,55.60013667683706,504.50229724805286,-4.390221292525505,54.60726089883467,499.9721540135813,-23.403384172962603,47.31456298353407,408.89077930828824,-74.71973984935619,43.44957136804456,-0.011550178216844842,0.5224035224035223,0.47934781268114607,-0.043129709796376745,-0.021213354546687806,0.003,0.0974969474969475,57569019.34738469,29141039.803480834
R7:open,0.001831501831501825,-0.0012210012210012167,30.814463479631875,39.2565280029182,46.59451857968635,39.624926316708844,4.445193080644343,46.76031480015094,39.74187376289144,-4.347613522253675,46.82662523275396,39.430216824558094,-23.17562439395933,43.671704799206125,32.45763364025785,-74.24660498808677,41.50675809106105,0.0014861681528348142,0.0420320420320419,0.03786337119670441,-0.005056671723338388,-0.0017020017020017153,0.003,0.007676693676693732,4785601.306550711,2370160.7627046923
R7:short,-0.01770451770451764,3.4835164835164836,0.030784079170935178,-137.05906707597052,-5.270979258040311,0.035958469968135294,89.70456016421558,-5.670814250039303,0.029731795763768408,45.381154052865725,-6.506833022961799,0.03222018637845996,36.7151030382488,-5.899357490028243,0.029516873182667595,-10.65353631749943,-5.731193122921532,-0.017790851124184395,0.002762669429336083,0.00014800014800013528,-0.003280669947336605,6.166672833340936e-05,0.025,5.500672167338128e-06,30977.538409367236,31062.953145990403
R7:parametric:-0.5,0.006105006105006083,-0.008547008547008517,606.8098992488971,39.23732554358716,53.574717910708685,779.8986202121716,4.442522390198158,54.504867317378626,782.3990577006011,-4.393930695305304,53.682256306209524,776.4445845525879,-23.356181148238,47.14448670493587,633.7517856593672,-74.9270097389506,43.06205100083447,0.006364006364006341,0.8105659772326441,0.7437870771204105,-0.06661856661856683,-0.03288686622019965,0.003,0.1512476535809869,90508895.47612238,46072689.54243098
R7:parametric:-0.2,0.009157509157509125,0.006105006105006083,388.05826843998284,39.467242250452685,51.60554437319613,501.75122354188983,4.48949777015735,52.409725301804535,503.82283290653004,-4.368435077934627,51.92992950047743,499.44700745461785,-23.277193588755082,45.02045308675674,409.9272635760774,-74.87237503965324,42.767309684481305,0.009589176255842888,0.5215833549166882,0.47757181090514433,-0.04442471109137761,-0.02123802123802116,0.003,0.09727584144250812,62753793.86421123,29635605.660731375
R7:parametric:-0.1,-0.009157509157509125,-0.004884004884004867,349.5114101831422,39.24934382305048,52.534226255588614,451.52940217971,4.458686784496293,53.706371635315584,453.2404519404997,-4.345689814865159,52.69847142836579,450.2314046487563,-23.180532242962933,46.98614768315022,370.37683057484935,-74.85047422111857,44.40338097121344,-0.009509009509009476,0.4700238033571368,0.4307420974087641,-0.039590039590039455,-0.019153685820352644,0.003,0.08752207668874334,56117800.66855252,26070255.01620097
R7:parametric:-0.05,-0.023809523809523725,0.006105006105006083,331.8236153425444,39.32668114947316,54.18113354616214,428.96102084216795,4.480111778781753,54.454113767674514,430.4177033230893,-4.375733257286615,53.75249194746799,426.66030599210535,-23.34924495805729,47.97980796964823,349.5473107325334,-75.08192275528064,45.162848779034206,-0.024290524290524203,0.4456531123197787,0.408357075023742,-0.037197370530704175,-0.01798201798201792,0.003,0.08312800779467452,51238388.68908534,23835692.339498516
R7:parametric:+0.05,0.012820512820512775,-0.006105006105006083,304.6540168687575,39.20754241386497,53.43134555567162,392.3067379748459,4.446622001281117,53.42635204143066,393.7378900177269,-4.336040395351702,53.615455897050495,390.6384699462858,-23.230304953310288,45.728597363146136,321.2286399063192,-74.59889030279007,43.10183341645593,0.012308678975345598,0.40824607491274145,0.37425537425537425,-0.03447786781120125,-0.016384849718183013,0.003,0.07605721439054772,45460977.741796374,24033541.979722954
R7:parametric:+0.1,-0.007936507936507908,0.0012210012210012167,291.0873112832282,39.51430291413197,51.886177293497575,375.97482840999254,4.490033012062496,52.77218333721863,377.1778325311169,-4.374951900192483,52.01685036278312,374.16308104627797,-23.294717445935532,45.131337834855465,308.22264335992367,-74.96797117442188,41.40576099172267,-0.008047508047508018,0.3907697241030574,0.358283691617025,-0.03225169891836547,-0.015984015984016373,0.003,0.0728406655073322,49297750.46795055,23071313.75728676
R7:parametric:+0.2,-0.007936507936507908,0.00366300366300365,269.17942084686524,39.423733343583784,52.518228653506256,348.2712719570895,4.479115167897533,52.645293469189234,349.5092806262652,-4.359284064259717,51.76199400599757,346.72288790607655,-23.313361552194927,45.42390209321306,283.9172225714771,-74.5494578879368,43.25751368951842,-0.00815850815850813,0.3617493617493618,0.3314339981006645,-0.03000703000702991,-0.014528681195347823,0.003,0.06752527719194387,43014849.92995485,19958295.06961179
R7:parametric:+0.5,0.0012210012210012167,0.0012210012210012167,222.83939590056997,39.117749275939815,52.17913017237274,286.5978523377564,4.4316745012598835,52.84142588407832,287.5647501133523,-4.361991962571885,53.17583168872946,284.9514275966459,-23.254815175573086,46.77711365442234,234.06276709098495,-74.76645015282163,44.37385166808502,0.0014861681528348142,0.2975357975357975,0.2736646069979405,-0.024931858265191738,-0.012012678679345738,0.003,0.05554440621107286,34385493.64207588,16679075.189299852
R8:open,-0.01098901098901095,-0.0012210012210012167,79.93079591253576,39.041815600757644,14.248366556111858,102.6903411559995,4.427872762928505,14.247080778890393,103.04417869957143,-4.282504005396676,14.251421624136444,102.26777717081222,-22.959541865780494,14.222777073710176,84.16925515321385,-74.02275497303074,14.071503390424212,-0.010970510970510931,0.10667110667110674,0.09829059829059839,-0.009108175774842419,-0.0041748375081708256,0.003,0.01991634291634293,12514773.417524392,5871588.723710894
R8:short,0.026862026862026767,-3.481074481074481,0.5529393889025027,-140.85803478515058,12.045619128463443,0.7130709916449269,-176.06474450251966,12.038366656003742,0.7082791930260859,174.93619709275106,11.926663250863218,0.7097688377296135,156.3162007406146,11.973804033700386,0.578629079758364,104.57600438469196,11.780157198529775,0.026609193275859845,0.002096668763335429,-0.0006043339376672688,-0.0030833364166697394,3.700003700003729e-05,0.024,-0.00013135629802296656,93338.65381150878,49153.52626615878
R8:parametric:-0.5,0.004273504273504258,0.006105006105006083,555.3846543271153,39.266862641318475,31.162696167595758,716.9559681707117,4.467881188384875,31.169640879653173,720.2304777162218,-4.3384381427835175,31.149532712679438,714.4239164832479,-23.234715705097905,31.09070566704842,588.3884754221883,-74.87583906573882,30.931750048597642,0.004162504162504147,0.7459084125750792,0.6834030167363498,-0.06309739643072997,-0.030068696735363304,0.003,0.13902303868970528,84135827.92261972,37573244.384223804
R8:parametric:-0.2,0.010378510378510342,0.008547008547008517,378.3063817567029,39.28900646327078,39.78537540322773,486.75201114143937,4.466304700953459,39.79887151485911,488.2734714948843,-4.372136623174498,39.86521766566805,484.79801662548124,-23.230658887519553,39.63314613819207,398.07131892975417,-74.97405536789167,39.26255056425491,0.010415510415510379,0.5061481728148395,0.464214797548131,-0.041995041995041865,-0.020362353695687403,0.003,0.09434366867700203,56512374.1250522,28182237.618005138
R8:parametric:-0.1,-0.0030525030525030417,-0.006105006105006083,343.6748981026684,39.25062941888494,45.768800132905774,442.5461854593445,4.461059213503476,45.81149657075193,444.84136594448825,-4.342386006047097,45.88599768448289,441.82631561385955,-23.16772641276521,44.48955789436592,362.40910539983685,-74.52087345264057,43.2149977127522,-0.003817170483837137,0.46067512734179417,0.42181275514608835,-0.03913370580037233,-0.01854935188268515,0.003,0.0857670601003934,55301656.1434594,25780178.82595099
R8:parametric:-0.05,-0.011599511599511558,0.00366300366300365,330.0774564081728,39.39231256716597,50.26868931293354,426.29722369641,4.49778437882307,50.642149871971256,428.2267203272448,-4.353832362470206,50.43041506117607,424.4540139996486,-23.27328105926261,46.04603896384515,348.94523115379803,-74.5958730532545,43.425053518993906,-0.011365178031844659,0.44353177686511,0.40680307346974043,-0.03724670391337045,-0.01801901801901795,0.003,0.0826783586783587,51359483.98895186,24106585.6104279
R8:parametric:+0.05,0.005494505494505475,0.0012210012210012167,307.16201492222126,39.373419259067106,49.90495568514572,396.6038336833519,4.47167244394866,50.42453314025009,397.8901830022143,-4.33912187715767,50.22858757759998,394.69417031894636,-23.2331826068226,46.36069247777077,323.4517382784942,-74.38630917747395,44.13585857944041,0.005938505938505917,0.411798078464745,0.3777272110605444,-0.0347245347245346,-0.016508183174849787,0.003,0.07688801938801937,47555907.40786104,22591421.95139636
R8:parametric:+0.1,0.0,-0.006105006105006083,296.73225500510875,38.99571561822323,45.583061070088945,381.28374006425156,4.444237541429478,45.60653090079242,382.8420510713254,-4.347867579208563,45.982822593788924,379.8499977039763,-23.323943543124003,43.920512562586595,312.51860418164483,-74.76829595438582,42.22195579980782,8.016674683341326e-05,0.39684389684389676,0.3633033633033633,-0.03299169965836621,-0.015848349181682667,0.003,0.07398823398823398,46123858.61514175,22575124.72609023
R8:parametric:+0.2,0.004884004884004867,-0.0012210012210012167,278.014773194633,39.34150754937386,40.20703276483782,358.67608521597936,4.48533163723336,40.34028297780023,359.95015103660967,-4.329488191846205,40.539366194573915,357.1746161418878,-23.112859993177054,39.87502396680441,294.0544081798315,-74.68784843031914,38.77973114064157,0.00531567198233863,0.37339204005870674,0.34226884226884213,-0.031295864629198075,-0.01521934855268205,0.003,0.06955862039195373,44265876.57807879,20838201.842594504
R8:parametric:+0.5,0.02503052503052494,0.0012210012210012167,238.69520521587773,39.05384706017043,33.368787515563604,306.9672959386339,4.433633577847134,33.45687537165204,308.25489641349094,-4.321138292873945,33.3876265719235,305.6222913393646,-23.123296722527304,33.25682964333343,251.8574584434367,-74.73432324174658,33.08677352044365,0.025388192054858632,0.3194953194953197,0.29294162627495945,-0.026862026862026767,-0.012974679641346687,0.003,0.05956129056129053,37653926.64302033,18064682.483890228
R9:open,-0.009768009768009733,-3.5006105006105006,0.23667745215205196,38.802623666550616,23.58160814579484,0.3143599001929489,3.7744279745897282,23.978509055032028,0.30430464136218616,-6.293593133655966,23.612723082796272,0.3009167180563236,-24.435000301041057,23.677132986103537,0.2573302472091022,-73.11299292155942,23.53597214413302,-0.0096693430026763,0.0030833364166697394,0.00045016711683379135,-0.003336170002836654,-6.783340116674197e-05,0.026000000000000002,6.105622772289418e-05,43037.382232063304,32473.760274239088
R9:short,0.0012210012210012167,0.0012210012210012167,79.62706608928656,39.25515325418466,14.258303314915825,102.70432317057166,4.470078787662159,14.258671432400387,103.01060428813915,-4.307111236629472,14.265824976125444,102.21078630324352,-23.052918640691146,14.200408285199726,84.39568384188485,-73.97440143263177,13.99843957189129,0.0012210012210012167,0.10691160691160696,0.09759376426043104,-0.009280842614176138,-0.004187170853837501,0.003,0.019896276562943203,11746425.54884037,5683726.933584254
R9:parametric:-0.5,0.005494505494505475,0.0024420024420024333,198.94547839421193,39.07665860287783,28.055981371643608,255.51551874788555,4.431680738428923,28.052294750492386,256.3846791642869,-4.331506744655719,28.071784055019137,254.46954964729508,-23.15850865978275,28.013208302631654,209.9309922467444,-74.5739001558934,27.90424419325168,0.005414338747672062,0.26598709932043263,0.24412007745341083,-0.02232335565668891,-0.010841010841011023,0.003,0.0495375303708637,31885172.169309415,15196007.101535372
R9:parametric:-0.2,-0.004273504273504258,0.006105006105006083,270.24855083593906,39.39463218305082,38.395550799835,348.44809726366856,4.468322461252918,38.49322630654286,349.64953124411727,-4.356058538278017,38.49140789803052,346.3298342589187,-23.166067216620405,38.39566530856433,285.6244627389693,-74.49566673135296,38.00990488454118,-0.004433837767171085,0.36200836200836206,0.33175466508799856,-0.029945363278696513,-0.014491681158347773,0.003,0.06754343187676523,43327080.36448122,20672147.06983042
R9:parametric:-0.1,0.007936507936507908,0.00366300366300365,294.92733435960673,39.1526755459046,44.67412009073392,379.4662321193667,4.43565658264424,44.96651817476267,380.6947060642066,-4.355201344825342,45.061793627001265,377.88098758833087,-23.261466089356592,44.34586922469868,311.53801595821494,-74.71627724249403,41.58492064638108,0.007714507714507687,0.39430939430939427,0.3617986951320285,-0.03289303289303279,-0.015984015984015942,0.003,0.07356396689730024,45322773.194755994,22431899.19737963
R9:parametric:-0.05,0.001831501831501825,0.004884004884004867,306.2097795867648,39.03877285799266,48.761593150083684,394.0534621829641,4.423111989586058,48.76640137792486,395.67872523487983,-4.33363991420447,48.97244469202796,392.4065244458846,-23.14530673132859,44.90103084603946,322.89148100080394,-74.34762521708916,42.55939433759118,0.001998001998001991,0.4101392434725767,0.37592654259320923,-0.034052367385700597,-0.016582183248850073,0.003,0.07643925827259158,49243642.646038786,23088032.782086432
R9:parametric:+0.05,0.011599511599511558,-0.00366300366300365,331.3118066828264,39.05393042419066,51.38523742761321,425.55165004706515,4.418964524924423,51.430692374178335,427.02733973331397,-4.364707081499499,51.24982513890538,423.71227587623497,-23.243989143661828,46.511573216522926,348.29076080572264,-74.82668074560348,44.60181666097683,0.011155511155511116,0.44296444296444315,0.40556973890307213,-0.03680270346937002,-0.017858684525351137,0.003,0.08248915282248624,48477096.917100914,25133736.33518223
R9:parametric:+0.1,0.005494505494505475,0.0012210012210012167,341.2490488163906,39.52003263912357,46.05490441626705,440.0249416965417,4.496372702077468,46.31293150788071,441.8499746844133,-4.384090685703002,46.45417831942751,438.00989538841793,-23.32964966984551,44.07366204443321,359.27353158384,-74.71215449838257,40.75835849951618,0.005223171889838538,0.45749312415979054,0.4201477534810867,-0.0382333715667052,-0.01838901838901834,0.003,0.0853708020374687,56002322.95305411,26239772.837846477
R9:parametric:+0.2,-0.00366300366300365,-0.00366300366300365,364.947486673878,39.24507717096823,40.896741308017546,470.37010716910567,4.468416715392548,41.19126021268939,472.044409174847,-4.33089673354067,41.29476042608775,468.9693246167268,-23.226574880741556,40.676819060426496,384.76921740825355,-74.71647409849822,39.26230094557224,-0.004088504088504074,0.48933165599832273,0.4484959484959482,-0.04081104081104089,-0.01960385293718621,0.003,0.09117481900815233,55194641.47587812,27734740.816675335
R9:parametric:+0.5,0.009157509157509125,0.008547008547008517,437.7762837231284,39.223141845135345,34.99814042363955,564.9764015475905,4.4601489274256085,35.00057917278765,566.7773051826051,-4.353657723147055,34.99876804344122,561.9508541995651,-23.261210969421267,35.000873386955845,462.911402020067,-74.64620313931078,34.766509995978396,0.00955217621884285,0.586339586339586,0.5383012049678715,-0.04875371542038234,-0.0236183569516902,0.003,0.10948487315153987,69997365.36170457,33334928.976269446
R10:open,0.011599511599511558,0.0,158.68806709741904,39.29169544327731,16.054824522613362,204.83077117764452,4.457405737175407,18.269093993071937,205.54487765714265,-4.403489890998854,18.29927801873494,203.55719123543298,-23.436442026721707,18.215087480644556,167.62057466085102,-75.29780749181917,16.52760592304362,0.011692011692011652,0.2127748794415458,0.19524919524919523,-0.01739618406285089,-0.008621008621008598,0.003,0.039723726890393524,24535541.376899756,12464794.77009874
R10:short,0.012820512820512775,-0.0012210012210012167,476.26362382165536,39.36955495293391,25.617970017989258,615.895522340916,4.488383338909652,27.831376777703532,618.128081218145,-4.341328808121335,27.862881385136625,613.0498072602247,-23.20004953675272,27.790945715692253,502.49678347767065,-74.58616876056632,26.063896931328024,0.012561512561512517,0.6395333061999728,0.5868822535489203,-0.05355138688472004,-0.025813692480359487,0.003,0.11931372331372321,69051736.84446847,34946226.32171474
R10:parametric:-0.5,0.004273504273504258,0.013431013431013383,370.8515205414638,39.37406821504548,31.0755448480025,478.23475280630004,4.493140812267286,31.08800212896898,479.9781151560734,-4.3250556776018065,31.06520306737751,476.5844871447121,-23.095600635019277,30.97427258317879,392.96483517852016,-74.5227161273716,30.948122297345407,0.003792503792503779,0.4982671649338316,0.4563337896671232,-0.04266104266104251,-0.020041686708353303,0.003,0.09273268706602035,56211916.27155396,26364167.230315316
R10:parametric:-0.2,-0.015262515262515208,-0.0012210012210012167,335.9742602306571,39.272881138518215,39.686491182162875,433.3173737181239,4.463704060812759,39.755240492460146,434.8757897111347,-4.370868365954301,39.77238181593513,431.3285017234768,-23.369698755217254,39.34561212713953,353.5670446650442,-74.88598872351156,37.895597094227426,-0.014904848238181518,0.4504877838211173,0.41289574622907943,-0.03707403707403739,-0.018154684821351852,0.003,0.08393050159716822,50646219.84952159,26183389.689802658
R10:parametric:-0.1,-0.011599511599511558,-0.00366300366300365,326.69977956322725,39.15760518200059,44.73833917336542,420.7723564667252,4.447569319866549,44.85509704333401,422.34260893060247,-4.31747922348084,44.883007251852675,419.05406718687635,-23.214190583790604,44.14216328795334,343.6877474850654,-74.60028985097017,42.06787251639681,-0.010970510970510931,0.43684710351377043,0.4014750681417347,-0.0364450364450363,-0.017562684229350853,0.003,0.0815933695933696,52897442.80182313,23693987.011251673
R10:parametric:-0.05,-0.004273504273504258,0.0012210012210012167,322.27821466471767,39.27490016529793,51.00499146052827,415.7245170927299,4.463803316488879,51.2332054859577,417.0327070198508,-4.350253284928199,51.143516998849144,413.96096452832944,-23.217386109778484,46.331775708686564,340.18295673191477,-74.66078208444976,43.58763272986068,-0.004569504569504553,0.4319507652840984,0.395777062443729,-0.03634636967970288,-0.01748868415535076,0.003,0.08057382124048787,50759364.5766728,23943792.75635418
R10:parametric:+0.05,-0.011599511599511558,0.0012210012210012167,314.4110666707454,39.084506710523556,51.05291530974821,405.20980840234074,4.442663721322621,51.07365117426174,406.4904629007467,-4.356532285699715,50.40288786690266,403.37460077522286,-23.18838550097315,46.14382763548165,332.7288911331726,-74.71073613829176,42.06525074938747,-0.011513178179844806,0.42151675485008805,0.3863790530457197,-0.03513770180436834,-0.01705701705701701,0.003,0.07852468519135195,48283294.73883704,23257905.13343164
R10:parametric:+0.1,0.009157509157509125,-0.00366300366300365,310.73488323216236,39.30463439373031,45.53714825401585,400.6576040933393,4.458999082309052,45.68065110783716,402.43553338205083,-4.366302180983064,45.920257657726125,398.602342470901,-23.242681418990596,43.64347029979871,328.1460230573791,-74.68494522331343,41.90349331359154,0.0092315092315092,0.4163799163799162,0.3820562153895488,-0.03500203500203487,-0.016921350254683512,0.003,0.07774691358024689,50971333.27158746,22709435.452453688
R10:parametric:+0.2,0.004273504273504258,-0.00366300366300365,303.9789775536217,39.061073995391865,40.9762848821559,391.6460669216381,4.423018407855923,41.04457304025117,393.00069149527906,-4.376175786491369,40.96553580119257,389.0992685340092,-23.33405321549731,40.62042668643468,319.64943214821056,-74.80500726981312,39.9853567944575,0.0042981709648376165,0.4063344063344062,0.37334270667604,-0.03376870043536699,-0.01639101639101633,0.003,0.07589210789210789,46254853.58611491,23374497.375408515
R10:parametric:+0.5,-0.006105006105006083,0.0012210012210012167,285.28976065702136,39.315347320527096,33.441353081384335,368.69109857275976,4.497127465449396,33.418107047932594,370.53654052948946,-4.342249634174939,33.45846957770902,367.2183885172729,-23.238663584037944,33.424496156995176,302.2690301083267,-74.71465724599389,33.03504535993113,-0.006314672981339625,0.38342521675855,0.35137085137085144,-0.03217153217153228,-0.015459848793182067,0.003,0.0715373145373145,44763197.52706373,21347982.8432146
R11:open,0.012820512820512775,0.006105006105006083,473.849323361616,39.57153909411084,25.56097031624671,613.1781791429074,4.503345523077666,27.796985757358485,615.3690959990636,-4.351921592081734,27.82393102754614,609.7761059719217,-23.279043475525885,27.74440522879042,498.8504189413397,-74.78139188979775,26.01254832778004,0.01252451252451248,0.6375969709303047,0.5847239180572515,-0.05326771993438641,-0.025789025789025685,0.003,0.11889353856020521,71206543.52228665,36474824.09120588
R11:short,0.0012210012210012167,-0.0024420024420024333,158.82270949131384,39.22861614417772,16.06798083755033,205.5200304134907,4.4729817817100885,18.298140164269505,206.17481615386546,-4.378058362714871,18.32589092256972,204.2436864320392,-23.420235488014526,18.244065657589772,167.21707306382234,-75.485555896612,16.50667662812993,0.0010915010915010877,0.21312637979304658,0.1954341954341954,-0.018074518074518008,-0.008651841985175282,0.003,0.03982199282199282,25503267.744632285,11927637.480127513
R11:parametric:-0.5,0.015262515262515208,0.0012210012210012167,264.96075894097817,39.27224607697499,28.255080248868964,341.3257064762448,4.447523510106805,28.246211851866285,342.3708836943989,-4.396815768487116,28.256566790127383,339.4461718014762,-23.38896570063424,28.225913237064965,277.82803374262346,-75.09024334087718,28.10232112721924,0.015435182101848714,0.3544048544048545,0.32519949186615826,-0.029297862631195867,-0.014331347664680954,0.003,0.06615337748671085,41875686.1953405,20550991.780073382
R11:parametric:-0.2,-0.001831501831501825,-0.0012210012210012167,299.8096981422811,39.325082382437344,38.83405307165845,386.0973138811685,4.483008528808023,38.87348887765046,388.26312942104863,-4.360990058221685,38.97146667522973,384.9099215914926,-23.227793146788194,38.61898709613186,316.40020624337234,-74.5283038920752,38.120118155760466,-0.002090502090502083,0.40157373490706816,0.36845870179203516,-0.03330003330003362,-0.016304682971349578,0.003,0.07492569159235828,47006725.45333732,22964982.522748888
R11:parametric:-0.1,-0.005494505494505475,-0.01098901098901095,308.249912911854,39.368170286114676,45.31912373603781,398.9128284847912,4.475642435757319,45.33660138637583,400.2981958135998,-4.366000065807099,45.5490385554525,397.08427836256175,-23.297092857121413,44.436351866149835,325.7818905681689,-74.96446439846935,41.70957685070189,-0.006000172666839312,0.41486908153574814,0.38057004723671384,-0.035002035002035324,-0.016896683563350168,0.003,0.07737886804553469,46201296.08920221,23123061.02329985
R11:parametric:-0.05,-0.0006105006105006083,0.006105006105006083,314.53530014189164,39.18422292044813,49.21285026748377,405.37723073738294,4.449940459310828,49.29676850956036,406.6347709305998,-4.372704010322343,49.469564912489304,403.05203672367793,-23.32466922719887,44.99889649272866,329.7806598786047,-74.74413136529367,42.567972531119985,-0.0011408344741678034,0.4207027540360872,0.38658871992205324,-0.03480470147136845,-0.016983016983016908,0.003,0.07854279054279052,51689438.761974506,25287952.909838125
R11:parametric:+0.05,0.011599511599511558,0.008547008547008517,321.1416489160028,39.123871136973015,51.055372593976585,414.11320303674546,4.435337536917218,51.085323065687035,415.39370266579397,-4.333928271892998,50.78660546826238,412.35642693205574,-23.213803277700553,47.032083363938504,340.32256689886816,-74.47365693250467,45.66593473448059,0.011291177957844584,0.43052009718676365,0.3948767282100615,-0.036247702914369455,-0.01727901727901722,0.003,0.08028023828023825,51105422.07301264,23267415.460941233
R11:parametric:+0.1,-0.005494505494505475,0.0,327.23947115242345,39.15094503654561,47.076901988249546,420.20070999671384,4.448298403098718,47.10418985122508,421.69060223193196,-4.385463082085171,47.104175758923716,418.1875514776639,-23.369706897547385,44.81525006677595,342.56927972477257,-75.07027565918729,42.465507203158566,-0.0048716715383381876,0.43688410355077,0.4008029008029007,-0.036173702840369595,-0.017692184358850966,0.003,0.0814884744884745,51789735.89481917,25005412.180409357
R11:parametric:+0.2,-0.00366300366300365,0.00366300366300365,332.2121148580419,39.26739698957393,41.236417617194114,428.99469407478443,4.47011462151086,41.308642829272124,430.7999135996304,-4.297440998649789,41.36192641417052,427.3287316516483,-23.141089685766275,40.89726803105563,352.05650951167206,-74.64730656177264,40.47995175101435,-0.0035828369161702367,0.44614027947361257,0.4089860756527422,-0.03773387106720449,-0.01795118461785123,0.003,0.08319799953133289,54236034.14810298,24362358.843491532
R11:parametric:+0.5,0.006715506715506692,-0.01098901098901095,350.19833973300035,39.260981169102834,34.92256026002207,452.1949274076086,4.470357571606949,35.02507795416372,453.6061824736265,-4.360664866987311,34.99771643418633,449.4108257736915,-23.2352455894058,34.918188330186936,368.27705915308155,-74.80815193710191,34.7552091669763,0.007190340523673832,0.46935163601830254,0.431081264414598,-0.03871437204770546,-0.019116685783352377,0.003,0.08766903466903472,51740937.13851577,26332704.33901815
R12:open,-0.006715506715506692,0.00366300366300365,318.53023868043886,39.15459061929719,54.49735385580391,409.92634980079,4.434751125464281,54.73977283240497,411.18290736936365,-4.367912821526209,54.26671471420078,408.95949952857285,-23.32615823153359,47.4453495023415,335.82863037288257,-74.61847400310575,44.275969162304996,-0.006351673018339662,0.4265795932462597,0.391090391090391,-0.03539053539053548,-0.017168017168017122,0.003,0.07947261380594713,48922080.38506557,24112475.871408157
R12:short,0.011599511599511558,0.008547008547008517,319.6310456361149,39.367138591564455,52.19424548125977,412.34452039980187,4.479010760089658,54.08834862301071,413.72864889722837,-4.356712226003629,55.32459474525918,409.30709852060744,-23.20329606071593,48.03936225690599,336.06934900098366,-74.61797438843278,46.49250964680248,0.011537844871178163,0.38945005611672273,0.35464535464535474,-0.040145040145040445,-0.018006684673351703,0.003,0.07148708082041418,50161714.98917677,22836175.190383255
R12:parametric:-0.5,0.005494505494505475,-0.006105006105006083,318.97981863673147,39.13387322825863,52.026421253228115,409.56490203386494,4.438594113924223,52.382102317551215,410.67722149839784,-4.397032836514403,52.811278434836666,406.69067030657044,-23.30942027740081,45.523973310333936,333.7761931605187,-74.90760369831277,42.62991268903667,0.005161505161505143,0.4245630912297577,0.39037505704172365,-0.035014368347701566,-0.01706935040268412,0.003,0.07931854565187908,51313473.879489936,24439166.32967146
R12:parametric:-0.2,-0.0006105006105006083,-0.0012210012210012167,318.1074659829394,39.272914732662,52.592531309095136,409.38322443276087,4.461791835200467,52.58979850873705,410.6158952428965,-4.354869343135112,52.245004112587424,407.2467917761325,-23.25899393343288,45.963761941767984,334.8143491555978,-74.78328305430539,42.230246085536585,-0.000980500980500977,0.4252845919512587,0.39094855761522446,-0.03561253561253572,-0.017106350439683712,0.003,0.07940362107028773,49636412.40145339,24866272.692022197
R12:parametric:-0.1,0.0006105006105006083,-0.015873015873015817,318.8469179038452,39.063105930178615,53.902319430298895,410.22959817699916,4.444872591052753,54.14438066717625,411.3771092371408,-4.3362753850388795,53.07393446801764,408.1758220019828,-23.240000549791556,46.39427752585405,335.6180971840675,-74.82740615664183,44.40100114822981,-0.00015416682083348694,0.42638842638842667,0.39123839123839116,-0.03539670206336861,-0.016995350328683614,0.003,0.0795397318730652,47867813.31203674,23190745.943427473
R12:parametric:-0.05,0.0,0.004884004884004867,317.896256323251,39.49822359950098,52.48557203492667,410.6265515403758,4.495733950718846,53.26108602586879,412.03982894757576,-4.346157020872337,52.74479779278445,408.43797963574247,-23.337011145974856,46.930780539219214,334.79405837225846,-75.00181400611743,44.16586506740753,-0.00024050024050023967,0.42661659328326,0.3911520578187244,-0.035766702433369185,-0.017303683970350578,0.003,0.0795804565804566,49333547.73856057,24217871.8770407
R12:parametric:+0.05,0.004884004884004867,-0.006105006105006083,317.42855460173826,39.196867459565865,53.37485060963809,409.4507737862225,4.461093597310496,53.405383843789494,411.5706875948822,-4.390507611845369,53.15665089075691,408.0731612489624,-23.483025510389787,45.54341236307786,333.2749278031494,-74.91711923555346,44.23655460524514,0.00508750508750507,0.4260122593455927,0.3908498908498908,-0.035057535057535144,-0.017254350587684084,0.003,0.07939807106473776,50323925.436417975,22948561.52107462
R12:parametric:+0.1,-0.01770451770451764,-0.0012210012210012167,318.9318038371652,39.265963364426035,54.53728284273097,410.04811303703707,4.456616507940281,54.72992325863547,411.30775524775106,-4.36680690934192,53.520837029308794,408.105689545356,-23.238694889176756,46.93641864535649,334.65026641290046,-74.7714770646836,43.45865705499442,-0.018136184802851407,0.426104759438093,0.39096705763372425,-0.03559403559403547,-0.01704468371135033,0.003,0.07950799817466482,47855391.799096994,23903865.33100721
R12:parametric:+0.2,0.014041514041513992,0.006105006105006083,318.3497340962386,39.210175638715164,54.23133115256259,409.43302382372553,4.4461829290594865,54.185685382781244,410.76415478075387,-4.3849272571528815,53.87001384720019,407.51558543927166,-23.43324470936004,46.72898354263728,333.79987748685403,-75.32758245355113,43.664396793839146,0.014251180917847535,0.42591975925309283,0.39011605678272343,-0.03572970239636894,-0.017143350476683736,0.003,0.079362908696242,51585755.15947495,24458371.81183895
R12:parametric:+0.5,-0.004273504273504258,-0.0012210012210012167,318.0357671172591,39.37993729214429,51.372461734402854,410.64791438056244,4.468793621751073,51.63135129411994,412.88162093689,-4.35735554709833,52.12701460527414,409.0491470670079,-23.256412416757303,46.355172686121605,336.98683664374965,-74.8309572758257,43.85581680848464,-0.00437217103883769,0.42743676077009435,0.39186739186739183,-0.035458368791702014,-0.01721735055068381,0.003,0.07975552842219509,48749861.64380132,24857954.964568228
R13:open,-0.006105006105006083,0.0012210012210012167,318.42102260391516,39.030915581865656,53.382329364183306,410.073960090549,4.408606220721339,53.53667965674273,411.04475235383813,-4.342543608955431,52.71345897488605,409.1020873631346,-23.03482216935873,46.43052806848662,338.2577034257655,-74.04804197197755,44.994286252897915,-0.005747339080672394,0.4271284271284269,0.39057239057239096,-0.03511920178586854,-0.017118683785350607,0.003,0.07947443297443296,49239751.23375369,23451961.952504233
R13:short,-0.006715506715506692,-0.0012210012210012167,319.48983507111893,39.46171082528055,55.8027036675995,410.9438962614402,4.476540714713211,55.91479834861805,412.05150758040395,-4.370577725732195,54.190693539107855,409.00548763639244,-23.218487691550184,47.63535671533674,336.63058345613695,-74.63400127930662,44.869310107566676,-0.006086506086506065,0.3975900642567308,0.35944302610969286,-0.040071040071039926,-0.016280016280016213,0.003,0.07290974457641124,46871582.289385155,22990721.442548607
R13:parametric:-0.5,-0.0006105006105006083,0.0012210012210012167,318.4020766286759,39.37527738687104,51.807905644069464,410.7917673133139,4.474766636049716,53.678166467426536,412.82403807285317,-4.341232962888822,52.783373840862104,409.52891722785193,-23.362708248691415,46.39991602574442,335.1919880532965,-74.99558771250108,45.0839882971798,-0.0010545010545010508,0.4274984274984273,0.3917193917193917,-0.03601336934670256,-0.017501017501017437,0.003,0.07965342065342064,50106178.64426664,23862258.215262134
R13:parametric:-0.2,-0.02564102564102555,0.0024420024420024333,318.5551304948375,39.142677007583536,53.46216623173278,410.32472598230686,4.438703014675801,54.481669749662146,411.7332713144746,-4.377636115161803,53.88203041092331,407.6952425028161,-23.236856044459998,44.96709276735412,334.43537652198455,-74.71281815406437,43.65776332634871,-0.025363525363525274,0.4263390930057597,0.3920647253980587,-0.03539670206336861,-0.017155683822350436,0.003,0.07952267485600824,51096963.96984722,23895857.383939695
R13:parametric:-0.1,-0.012210012210012167,-0.006105006105006083,318.4836199901504,39.226339886310356,52.10100337537545,409.959139819552,4.447037619895616,52.112384772902146,411.2297949717705,-4.377009373613902,52.126661428548665,408.1349802567523,-23.301554209820402,45.701839600908826,335.304029488539,-74.91390392337932,43.518606196110255,-0.012425845759179047,0.42636992636992666,0.3910533910533912,-0.034823201489868255,-0.01709401709401725,0.003,0.07945708612375277,53574805.20799346,23736368.75796444
R13:parametric:-0.05,-0.004273504273504258,0.0024420024420024333,316.4794456601934,39.30512296120707,51.2310666714597,408.75325307545836,4.483101030886271,51.70777151503964,410.361557935438,-4.323174175790738,51.32649212750138,407.614129247837,-23.132344480425758,45.225231335943604,336.26590870053144,-74.52021143309402,42.88194071835777,-0.004655837989171306,0.42592592592592576,0.3895980562647229,-0.03605653605653593,-0.017026183692850305,0.003,0.07919481136147805,51463056.30127439,23278194.658097025
R13:parametric:+0.05,-0.006715506715506692,0.0,317.48803998726754,39.35836279479338,53.45216043457087,409.8922817323238,4.4841027951794405,54.013098433803115,411.8884206757035,-4.336350929466873,53.95645329383864,408.4261293026012,-23.122006021337945,48.266212064682954,334.85836209189097,-74.3782391412133,44.38499826336029,-0.0066908400241733335,0.42684476017809353,0.3909423909423909,-0.035291868625202054,-0.017297517297517245,0.003,0.07950913284246615,47927136.63972713,23645534.361274865
R13:parametric:+0.1,0.010378510378510342,-0.0012210012210012167,318.13380071735156,39.155966251664076,53.63096722944466,409.89763723124946,4.441825328661208,54.29571509860145,411.6132922691186,-4.381941050411429,53.13903243092723,407.9792367915493,-23.327518451601556,45.08288803509943,334.65202144659344,-74.7664458207839,43.183648572789856,0.010612843946177241,0.42569775903109264,0.3908930575597242,-0.03515003515003502,-0.017427017427017365,0.003,0.07948529248529247,53367218.26492068,24162004.69370047
R13:parametric:+0.2,0.008547008547008517,-0.004884004884004867,317.0141136597495,39.37094376105349,52.763519322013565,409.535423762218,4.491281351555664,52.93214044765719,411.03028338550246,-4.3397484168861515,51.295555317078346,407.6243239239175,-23.159600056924898,46.10227035224615,335.67716283858584,-74.52899013812657,43.08932112690812,0.008417508417508388,0.42562375895709215,0.3905600572267238,-0.03562486895820239,-0.017513350846684116,0.003,0.07938647771981105,52361590.7000835,24019377.361826643
R13:parametric:+0.5,0.01098901098901095,0.004884004884004867,317.66168824666386,39.3778539453098,52.73977463506347,410.09686050707074,4.476467339974704,53.071129264214946,411.7871797878514,-4.37666834781988,52.3116149362769,408.61866425914377,-23.228167680087566,45.27707841608189,336.6490547572604,-74.49577644984342,42.107022633740385,0.010668344001677297,0.4267337600670934,0.3911828911828911,-0.03598253598253609,-0.017229683896350725,0.003,0.07951249367916037,52017368.95909725,24290423.979764346
R14:open,-0.011599511599511558,-0.006105006105006083,318.1494350571132,39.125464370912105,53.16475007094564,409.3234486559503,4.468686138696233,53.07809506726544,410.9578610935715,-4.380879629039746,51.74927799638435,407.68943095270214,-23.26985637176859,46.75525259204855,334.3015030192734,-74.77365096735285,43.90869322732256,-0.011315844649177943,0.4258087591420927,0.3905230571897238,-0.03554470221136877,-0.017168017168017122,0.003,0.07939634439634445,53190256.55795208,23550224.10950227
R14:short,-0.011599511599511558,0.01098901098901095,318.4820341426331,39.25392118192661,53.88707154413606,411.28244884778087,4.448282634427903,54.109977686836515,413.03670703828686,-4.368265320169324,53.533419155347744,409.28383570557713,-23.332347895033937,46.72988280705503,336.2184553103921,-74.76976863675881,43.8310743934379,-0.011537844871178163,0.4270544270544273,0.39213872547205875,-0.03554470221136875,-0.01713101713101707,0.003,0.07973348873348872,49054293.717138015,25530392.33513292
R14:parametric:-0.5,0.0030525030525030417,0.0012210012210012167,318.4283490456648,39.24028763474436,53.05869744843,409.23700948807294,4.4512705666916705,53.04976583894949,410.5354711820576,-4.3660149936601655,51.82725230900828,407.11438641170156,-23.287602049514557,45.27776558465787,335.2508247953906,-74.90387163934474,42.339252498153066,0.0033978367311700525,0.4253524253524256,0.3903503903503903,-0.03496503496503484,-0.017168017168017108,0.003,0.07933382666715996,51115977.61146337,24427029.738765147
R14:parametric:-0.2,-0.010378510378510342,0.0,317.7236772814392,39.37125386908218,53.33387562395394,409.844938739483,4.47418775762354,53.74773518475122,411.8882250167498,-4.352511331930975,53.2196485368102,408.4799486394911,-23.247378579666215,46.64963372719831,334.82100107739774,-74.74571506073086,43.24348716097708,-0.010575843909177204,0.42641925975259315,0.3905045571712238,-0.035674202340869106,-0.01712485045818373,0.003,0.07940248023581356,47276418.65760276,22905857.126033563
R14:parametric:-0.1,0.015262515262515208,0.00366300366300365,316.3817670656788,39.56195843625211,51.2843158045972,409.44463941194573,4.5170250140348625,52.05367780939733,410.8879275828337,-4.345949182042647,51.97958200819542,407.71550623431494,-23.282634664293624,45.895849875623796,334.3218097606584,-74.828504028845,43.617191105270756,0.01559551559551554,0.42543875877209214,0.3901530568197237,-0.03614286947620269,-0.017420850754184022,0.003,0.07936050986050985,49853358.95134521,23065795.816943653
R14:parametric:-0.05,-0.0006105006105006083,0.008547008547008517,317.88019011067854,39.30249275698465,55.68627564498415,410.2457101533465,4.464532001672088,55.58599921338593,411.50136858159397,-4.378723979081755,54.53827218242083,408.0552789581966,-23.40164098561587,48.18921634967666,333.77133246310245,-75.15259079840763,45.415733713548676,-0.0009250009250009217,0.42606775940109276,0.39104105770772435,-0.03526103526103534,-0.017248183914850522,0.003,0.07950219533552864,48203755.64256506,23165529.670153312
R14:parametric:+0.05,-0.01098901098901095,-0.00366300366300365,318.10786921186855,39.08410970644905,54.81535844651765,408.8818624424401,4.428882033189113,55.572955661459744,410.51212834390674,-4.342146671813747,53.568418307276204,407.5667773332175,-23.15811376297974,47.45824084312684,336.8192973613999,-74.50842218659761,45.24842557692845,-0.010785510785510748,0.4258519258519259,0.39036889036889033,-0.03569886903220247,-0.01698918365585049,0.003,0.07928082411415746,49005372.565696076,24331333.84973021
R14:parametric:+0.1,0.006105006105006083,-0.004884004884004867,317.3002459589409,39.305510692952694,52.06451224580739,409.0130588160315,4.460925728168103,52.48046342280395,410.55202289575595,-4.3721827046594655,52.01465361539057,406.66921508549024,-23.366706041642267,46.665452079141744,334.8472790527692,-75.10569119180745,43.23118112314866,0.00614817281483946,0.4250255916922582,0.39010372343705674,-0.035606368939702156,-0.017211183877850554,0.003,0.07927655677655678,51856534.50933789,23212987.58611629
R14:parametric:+0.2,-0.0006105006105006083,-0.00366300366300365,319.1931599409495,39.13631421816302,52.15356156306687,410.149759691802,4.4481647251934735,52.19176601347698,411.5913477880763,-4.375702135976754,52.43180161301456,408.176836519392,-23.28516331626901,45.33167608187886,334.3525684580574,-75.00269024467006,42.80146637692407,-0.0011901678568345191,0.4263514263514264,0.3908868908868909,-0.03537820204486858,-0.01713718380385062,0.003,0.07950247283580615,52102214.66262345,24808246.621241447
R14:parametric:+0.5,-0.010378510378510342,0.0012210012210012167,318.14374679261766,39.228251129962075,54.323435397297175,411.05193620849224,4.45594625283391,54.80038191623878,412.2082667975263,-4.364380216890678,53.80747912808181,408.72328942316426,-23.311349607755062,46.74155893584783,336.63920392839435,-74.64142514040806,44.87029851145596,-0.010267510267510232,0.42705442705442687,0.3919413919413919,-0.035705035705035595,-0.01746401746401742,0.003,0.07968260134926798,47857320.6920463,23429518.60538049
C3:open,0.009768009768009733,-0.00366300366300365,319.07817631574085,39.178168217472376,56.52049502143045,410.4444590673911,4.443657693038819,56.71460171263894,411.91646903581693,-4.384980568320199,55.129842546364756,408.1498625623881,-23.393541229384063,47.42026221374898,333.7910195518142,-74.97178275106845,44.38811105443027,0.01003317669984333,0.42602459269125936,0.391306224639558,-0.03511303511303521,-0.017297517297517224,0.003,0.07959627409627408,49446574.40969436,24864813.891229775
C3:short,0.009768009768009733,-0.004884004884004867,319.68858564755874,38.942809228514136,55.6718027367296,410.71015913602935,4.42246276193144,56.249150359781126,412.2246544021079,-4.343899091542052,55.77823559748714,409.5024096850292,-23.152394882405684,47.96359156030374,336.4431735237439,-74.39017849730615,43.64248988918426,0.00982350982350979,0.42752926086259424,0.39186122519455846,-0.03545836879170199,-0.017285183951850552,0.003,0.07967496700830035,47532401.56903339,24265966.48797737
C3:parametric:-0.5,-0.0006105006105006083,-0.00366300366300365,317.60903883517386,39.378890954264115,54.793761062930244,409.9237962697483,4.46774168708955,54.734535294268824,411.9480717433966,-4.3530135667564505,54.57370480066713,408.5651157382907,-23.27473936696762,47.3893661913883,336.5548464305424,-74.74363840049658,44.90890871540578,-0.0005858339191672505,0.4262527595860932,0.39074505741172405,-0.035976369309702515,-0.01731601731601727,0.003,0.07947379780713114,49781329.767252006,23727072.37857632
C3:parametric:-0.2,0.010378510378510342,0.00366300366300365,317.10864953389944,39.25376906344805,54.16824351899096,409.178145255206,4.484266124594921,54.40571319049576,411.0125930601766,-4.358394522532173,53.06436630369208,407.367420858591,-23.318767011591135,47.16720644801569,334.11397247544835,-74.84887993211473,45.25071027948586,0.010477177143843773,0.42590742590742614,0.39010372343705674,-0.03579136912470235,-0.017266683933350537,0.003,0.07932889332889331,52545780.610618934,22897734.249976765
C3:parametric:-0.1,-0.016483516483516425,-0.01098901098901095,319.1458687811302,39.20463023528258,53.763686391100734,410.5464701602215,4.458512182376845,53.936538784455664,412.0247549882838,-4.397060626930527,53.462684745364385,408.2683880061979,-23.39265298682963,45.11389506050489,332.98983528581914,-75.05425081382103,42.66633333703368,-0.01641568308234969,0.425839592506259,0.3913925580592247,-0.03509453509453519,-0.017075517075517015,0.003,0.07956999173665844,52527450.79134508,24432643.339395985
C3:parametric:-0.05,0.015262515262515208,-0.00366300366300365,318.98555508439847,39.07534909414998,51.48064953754848,410.6563944368191,4.4331633057030215,51.79840514514414,411.82194762851844,-4.3462538802689785,51.22467600499008,408.78608736814135,-23.243750026657377,45.82042676172486,337.45862467736805,-74.5403388937413,44.277422152631296,0.015139181805848419,0.4271654271654274,0.3911273911273911,-0.03587770254436946,-0.017439350772684034,0.003,0.07962189662189668,48388134.67639179,23357262.03404758
C3:parametric:+0.05,-0.0012210012210012167,0.0012210012210012167,317.65885059133313,39.32558027136943,52.64759046345118,410.0780735279103,4.47641559919501,53.267243580420484,411.80822461923077,-4.361384028321122,53.515139403664804,407.3531190573765,-23.33794194394021,48.04675772919268,333.90935384612015,-74.63342023848978,45.922833674133884,-0.0012826679493346113,0.42522292522292526,0.39065255731922394,-0.03546453546453535,-0.01726668393335054,0.003,0.07950040700040698,47819004.32828354,23126295.212160807
C3:parametric:+0.1,0.0006105006105006083,0.004884004884004867,318.3099207612006,39.125290190150395,53.236469763929385,409.6987862999805,4.451065987662467,53.72343018446682,411.0456873890688,-4.381837528267447,52.74675585813635,407.7714985116419,-23.293939881748386,45.95881610468376,334.1653310522143,-74.830128998466,42.962606761927944,0.00020966687633354225,0.42589509256175906,0.39057855724522383,-0.03497120163786818,-0.017186517186517127,0.003,0.07944488227821561,48683656.99218534,24184519.59402234
C3:parametric:+0.2,0.004884004884004867,-0.01098901098901095,317.341248923227,39.324884984488605,54.10123284017335,409.6938164512898,4.463099667615851,54.51408716023357,411.67522022318974,-4.331951820874114,54.02753069849427,408.37970863416774,-23.246065958713427,46.9005039068775,336.08228289821886,-74.6113948425025,43.10744414386904,0.0052478385811718965,0.42580875914209254,0.3904613904613904,-0.03613053613053645,-0.017359184025850634,0.003,0.07942067808734474,46709709.725821406,22866108.93414049
C3:parametric:+0.5,0.004273504273504258,-0.00366300366300365,318.82772803775987,38.93934006586721,52.305096735359875,410.4751147902967,4.407954708274025,53.494631784552276,411.8889989126235,-4.381991675466865,51.99711684974777,408.4033547000164,-23.28343975284509,45.99582633026141,334.51522559637544,-74.8093577102845,43.013376583075186,0.004618837952171269,0.42651175984509304,0.39157139157139154,-0.03508836842170164,-0.017254350587683875,0.003,0.07958282458282458,51499999.04517761,24505497.783059616
C3:cap_degradation:+0.2,0.005494505494505475,-0.01098901098901095,318.9659586922066,39.04254649637018,55.087282554358765,410.3623074475944,4.426658587492101,54.977196486034586,411.9036613634235,-4.341185711818654,56.08424502787009,408.5637470228032,-23.205843956726554,47.9744279839495,336.87046649009045,-74.53105911516842,44.1558938249683,0.0058521725188391644,0.42706676040009356,0.39163305829972495,-0.03576670243336897,-0.017205017205017145,0.003,0.07963975530642195,46851663.93880569,24443870.52703782
C3:cap_degradation:+0.5,0.0006105006105006083,0.0024420024420024333,318.55318618866494,39.16745170304999,54.089432460156424,410.1760935794316,4.445794287580044,54.0918160127485,411.50346540943804,-4.390219221360747,52.68261036009812,408.39188630686704,-23.382174526776943,45.65709384881539,335.34490360202517,-75.07002818686672,42.49529131131844,0.0004995004995004977,0.4263699263699262,0.3912198912198912,-0.03560636893970215,-0.017057017057016982,0.003,0.07953022286355618,49422688.338519394,23701428.976806507
R15:open,-0.0006105006105006083,-0.006105006105006083,316.90114021263895,39.29611115241226,55.82765637744806,409.23974987299584,4.474549943280114,56.09940134563499,410.6696887115105,-4.354341754358623,57.2020272765178,407.839261122358,-23.197170022617076,72.91149343457913,334.7596294714021,-74.57211969119838,88.46724309377727,-0.0011901678568345194,0.4258950925617595,0.3899557232890566,-0.03585303585303573,-0.01727901727901722,0.003,0.07937698104364771,51825909.25706847,24100715.481733557
R15:short,-0.005494505494505475,-0.008547008547008517,317.2785876399248,39.3505628549851,53.198789659219926,409.9373302817487,4.487022500780863,53.19437546073402,411.3338832276295,-4.361584456677353,52.87058596344633,407.78864369722294,-23.273068536480547,46.22932829577827,333.8079160261179,-74.7920662189359,42.363015605539225,-0.005839839173172485,0.4261047594380926,0.3908807242140575,-0.03534736868070233,-0.0171803505136838,0.003,0.07948814148814146,49005626.81163858,23415198.508139685
R15:parametric:-0.5,-0.012820512820512775,-0.00366300366300365,318.39782129715553,39.34643796516382,51.21231189765418,410.51773839024924,4.4721801563456856,53.009367477611,411.87801959569225,-4.379030689166813,52.013631556386045,408.51589191662134,-23.316610429454105,45.27749049279371,334.9417777505289,-74.7905518898819,42.66690880775374,-0.012351845685178975,0.42641309307975955,0.3917193917193917,-0.03566803566803556,-0.017229683896350503,0.003,0.07963479730146394,49501968.758243985,23810121.164822705
R15:parametric:-0.2,0.004273504273504258,0.015873015873015817,317.5448467361252,39.32264692311147,53.58546775789061,409.8502952745371,4.484462327143218,53.76492123025383,411.17925941038175,-4.337086383684035,53.557039514935255,407.33870992327445,-23.23921070930139,45.90484319698609,335.85117324949744,-74.62797306503069,43.48699916283081,0.004631171297837949,0.4258827592160926,0.39036889036889033,-0.035532368865702296,-0.01717418384085044,0.003,0.0794539472872807,51349462.03737951,24327474.691286746
R15:parametric:-0.1,0.0219780219780219,0.00366300366300365,318.6031797464784,39.24014604397617,52.48855564583425,409.52339573864845,4.474475309930335,52.794039440016405,411.7153466652143,-4.321529678879729,53.54648648076714,408.24041898151154,-23.15124670170357,46.03109808805688,336.50554013283966,-74.58996760164166,44.23122139987805,0.02163268829935489,0.4263822597155933,0.391071891071891,-0.03565570232236887,-0.01715568382235072,0.003,0.07939926739926736,52965846.82074064,24416878.469037194
R15:parametric:-0.05,0.015262515262515208,0.0,317.53742237085635,39.34686541002455,54.686375544444466,409.5831624170662,4.482326719375763,54.825120774793845,410.78030839694304,-4.3971084885472465,54.581554203938396,407.4272801890794,-23.35920649709177,47.667752817476256,333.33704034420794,-75.02459476251617,43.635444493363735,0.015213181879848492,0.42550042550042555,0.39028872362205713,-0.03520553520553508,-0.01750101750101766,0.003,0.0794170644170644,50082241.67874466,23429666.693594493
R15:parametric:+0.05,-0.006715506715506692,0.004884004884004867,317.6485430649817,39.30416515823054,54.05988599006166,409.29587024142484,4.4558844020791355,54.38260339557518,410.9051913598395,-4.380726032562084,53.49840220426816,407.25914844064516,-23.369826187462696,46.36472787464673,334.15710378512773,-74.83928904826159,43.559721893175734,-0.00637017303683968,0.42539559206225896,0.3902085568752235,-0.03516236849570192,-0.017316017316017257,0.003,0.0793778998778999,49065102.7671247,24202554.191615686
R15:parametric:+0.1,-0.007936507936507908,-0.0012210012210012167,316.7351861711545,39.33813868980998,54.32746748574972,410.00259204998997,4.483331813059678,54.907344221644124,411.4629330688747,-4.358363268459251,55.07778606507244,407.9387663790465,-23.288105233135937,47.33623318772641,332.9463602582161,-74.87352891666976,44.054227832593796,-0.007714507714507687,0.4260800927467597,0.3908190574857241,-0.03612436945770309,-0.017303683970350564,0.003,0.07946100812767479,48600228.038739614,24381743.622898817
R15:parametric:+0.2,-0.006715506715506692,-0.006105006105006083,317.500678301118,39.40240996182436,50.806385120702764,410.13645431331423,4.480999605205874,51.88229343879841,411.5631781423051,-4.355431301673717,51.913429382392664,408.1990384663747,-23.227680868766004,45.85549513966065,335.2605216121657,-74.814232014747,43.897365802666684,-0.007369174035840676,0.42680776014109373,0.3911643911643911,-0.03577903577903567,-0.017303683970350578,0.003,0.07954376487709829,47788623.10823745,23745343.338613622
R15:parametric:+0.5,-0.008547008547008517,-0.0012210012210012167,317.2932937620179,39.47050206068865,52.14123742799117,410.3454761838592,4.51470500276703,53.06478935366219,411.65353042774484,-4.354981838870723,53.6540047510921,408.01304756278216,-23.186286563654072,47.17060507719609,335.52384978248847,-74.54973211661729,44.61985738783994,-0.008836842170175472,0.4262712596045928,0.3911520578187244,-0.035637202303869284,-0.017328350661684158,0.003,0.07951470751470754,50250599.630884565,23992639.413284443
C4:open,-0.0006105006105006083,-0.00366300366300365,1.5959285675217016,0.07005914133442206,53.532404704135566,1.5943526732089506,0.24501840792508578,53.70104478556226,1.5928148038413996,-4.5630181161536365,52.952433650490605,1.5827811963197225,-23.46401159994404,46.85323877521399,1.2988064255394491,-74.32637655968888,43.39467138923651,-0.0007831674498341137,0.004452337785671084,0.0016156682823349616,-0.0031203364536697767,-0.00012333345666679096,0.037,0.00031774398441065027,190039.42852488172,86922.88332663747
C4:short,-0.024420024420024333,-0.0012210012210012167,408.9169580050403,-0.022664021032759052,50.60961888737007,409.7372379879879,-0.2292888216050415,50.900170697174914,410.3992590749067,-4.598861546500206,50.82943659985915,406.7827861119965,-23.461892564805076,45.61425599026633,331.5052854473693,-74.9534737141559,43.36003500004582,-0.025005858339191583,0.4224109224109221,0.4067044067044067,-0.013307679974346787,0.0,0.003,0.0806206139539472,48824950.00470869,22610792.466962263
C4:parametric:-0.5,-0.023809523809523725,-0.0012210012210012167,214.68447512140568,58.620736096930486,54.71574187033884,406.57632886049214,9.112232840066127,56.88840187844933,412.0992496683788,-4.101581675119657,55.852985578184644,408.6760630776822,-23.1230016669077,47.749968104760256,336.56888104731826,-74.50990434212412,44.29488887878969,-0.024074690741357322,0.42654259320926013,0.37210320543653874,-0.0558268891602223,-0.028070694737361533,0.003,0.07765920499253834,46812364.73955752,23315316.81275182
C4:parametric:-0.2,0.01892551892551886,-0.0012210012210012167,286.03048160015146,45.68916950383947,52.04593633328085,409.64394540279176,5.648379119042987,52.51805446819353,411.4916725672286,-4.299453646404748,53.16307186618492,407.8878593162847,-23.340888860622524,46.367199208734476,335.3251323291155,-75.07999113403604,43.27003523432882,0.018863852197185463,0.4264624264624267,0.3857993857993858,-0.041107041107040956,-0.020535020535020473,0.003,0.07906402239735572,49725692.19899006,24215439.525515717
C4:parametric:-0.1,0.001831501831501825,0.00366300366300365,304.3681497374197,42.279503101392514,52.113010157668725,410.0460043538978,4.986472400410265,52.169811075443164,411.6934910234452,-4.32524029888811,52.10082035641196,407.90857288714636,-23.173835600368154,46.09122160579716,335.77939466022076,-74.89668676344861,43.32886590925562,0.0019055019055018987,0.425759425759426,0.3891047224380557,-0.03797437130770452,-0.018611018611018562,0.003,0.07928139761473094,49659596.04826336,23871398.610807277
C4:parametric:-0.05,0.0006105006105006083,-0.0012210012210012167,313.6318543221417,40.369821070936936,55.283999756584656,410.2848976629258,4.6376790086759305,55.62095148679408,412.15521734796107,-4.3633163847508865,54.49891547125755,408.08716202498897,-23.39225742984984,47.58375441315089,335.25235826353475,-75.12006314900752,44.52827093089509,0.0008818342151675454,0.42616642616642597,0.39004205670872333,-0.03587770254436908,-0.01801901801901795,0.003,0.07952517852517849,48394740.68547945,22993911.16659644
C4:parametric:+0.05,0.013431013431013383,-0.00366300366300365,323.6878168378496,37.98857746643121,52.35353460072925,409.6425205994942,4.271250318279051,53.04358076323075,410.84114522807045,-4.367823078624628,53.15849929916345,407.2969606258225,-23.319975653273303,45.65668227007174,334.14087888122265,-74.71192864010322,42.575826747077535,0.013326179992846611,0.4254387587720919,0.39071422404755735,-0.03450253450253438,-0.016680850014183294,0.003,0.07943764260430926,52242571.74233713,23758064.233497918
C4:parametric:+0.1,0.0030525030525030417,0.00366300366300365,329.4956194176005,36.582823451656616,53.238101658615435,410.03282496528124,4.018839102206221,53.25013596502253,411.0908182941295,-4.40271778455415,51.99998556166435,407.80972278324197,-23.37361737965215,45.84127586542679,334.6073874559289,-74.8803889106806,43.08533676354378,0.0027441694108360677,0.42620342620342605,0.3924593924593924,-0.03305336638670005,-0.01597168263834925,0.003,0.07961701261701262,50787376.40471989,24011047.780490033
C4:parametric:+0.2,-0.006715506715506692,-0.008547008547008517,340.2590023854337,34.095669147431735,53.51140359483794,410.34976688166023,3.6665470200198196,54.73785626559602,411.4661200911401,-4.356525746012846,54.063663782941724,408.20074191768754,-23.149407280965814,47.82723760955853,336.72744317425764,-74.50812442175985,46.407434038150896,-0.00731984065317396,0.4266844266844265,0.39393939393939387,-0.03237503237503226,-0.014948014948014912,0.003,0.07979435379435378,45488143.78336563,23173358.344494224
C4:parametric:+0.5,0.020757020757020683,0.00366300366300365,361.0638386676671,28.579816362117686,56.56037450866004,411.4051837945419,2.898732321213437,56.588786595666704,411.74459942328633,-4.429127100443283,56.57437173244748,408.09070571968164,-23.28111645665017,48.18327907841206,334.7680018049192,-74.76051966661365,46.11422810912315,0.020837187503854097,0.4261232594565928,0.39780589780589776,-0.028927862261195494,-0.012265512265512223,0.003,0.08026834893501564,48671886.92633792,23385514.815293744
C4:cap_degradation:+0.2,0.001831501831501825,-0.0012210012210012167,288.0072241092014,45.39618692927414,54.625172768735965,409.0156735776935,5.5738087516361965,54.70424247542743,410.991542937538,-4.328134345250191,53.1648178894994,407.4872224709522,-23.34250569041143,46.51091662638375,333.57267094164865,-74.91468024108221,43.6185137069338,0.0012333345666678958,0.42574092574092554,0.38599055265721927,-0.03978737312070631,-0.02040552040552033,0.003,0.0789481506148173,49242998.6278437,24690138.357844587
C4:cap_degradation:+0.5,0.0006105006105006083,-0.006105006105006083,216.17122159886515,58.35553857815833,53.27604697387571,406.36460001718865,9.011189618746805,54.205182230373374,411.8607775023561,-4.107998700593708,53.18730595833473,408.1849460319488,-23.093907674231666,45.53582468193784,335.3015207376343,-74.44050454686197,41.28242569360875,0.0006475006475006452,0.42614175947509286,0.3718688718688718,-0.054747721414388245,-0.02800286133619479,0.003,0.07756010656010656,49589006.12121522,25284267.07080459
R16:open,-0.0006105006105006083,-0.0012210012210012167,411.61530659558036,0.1599996415135409,51.89066479097028,411.68458802428785,-0.2130311016885896,52.08519044547338,411.73100721999145,-4.632350341212842,51.28579057229503,407.92332133514446,-23.46763604776718,45.30962094320792,333.5909528072299,-74.81531181012227,42.81632817291431,-0.0007893341226674532,0.4264439264439265,0.4113787447120779,-0.014719848053181328,-0.00012950012950012964,0.003,0.08158570441903779,51601910.256315984,24727894.39060537
R16:short,0.012820512820512775,-0.0012210012210012167,0.028220223404668936,78.22066564566914,39.5539238421373,0.03076566699547855,73.60654232352688,40.26046741078777,0.0371026217495085,88.15610243428382,41.117535854434536,0.1264425468435782,65.89801684064315,45.595072192702844,0.3088698236617606,14.858292186111097,44.72914220300527,0.01310417977084639,0.00267633600966935,4.933338266673026e-05,-0.0032066698733365095,-2.4666691333344315e-05,0.023,4.440004440006695e-06,34204.378235455115,32725.161485461816
R16:parametric:-0.5,0.0030525030525030417,-0.0012210012210012167,214.48707140653602,58.55190772163599,51.01543410424231,404.91929685685824,9.080713254935386,52.483400941062264,410.668761671975,-4.096648679694493,51.89602810903298,407.8798493459484,-23.1130253952261,46.4668541586968,335.69371201280165,-74.66368812156095,44.11129647723612,0.0033855033855033734,0.4257100923767589,0.37076503743170414,-0.05604272270938962,-0.027898027898027894,0.003,0.07733380200046866,53234091.58524008,23516620.140592515
R16:parametric:-0.2,-0.005494505494505475,-0.00366300366300365,287.08008806606284,45.57349938172416,53.574186393160346,408.17197486948544,5.614614117090088,53.874661072675934,410.97925732758017,-4.259829264433055,54.20652405029421,408.22108333588403,-23.144294920158522,47.09585084727074,335.5912763642423,-74.42659635300498,45.58180791010551,-0.005469838803172117,0.42612942612942595,0.38607688607688606,-0.040767874101207385,-0.020596687263354077,0.003,0.07883456050122717,47782260.703607254,22847990.5107554
R16:parametric:-0.1,0.001831501831501825,-0.008547008547008517,304.2419449684163,42.14543002626392,51.863600612873604,408.37215165177474,4.977411916089507,52.63101650689406,410.54598812510136,-4.318157996687812,52.618833756033155,407.1485975981014,-23.341946912756907,46.35262732320619,335.0551649668708,-74.96126930483176,42.939259178843216,0.0020411687078353675,0.42561142561142545,0.38782205448872153,-0.03770303770303757,-0.018438351771685055,0.003,0.07904028070694735,51620667.70976912,24063330.579169262
R16:parametric:-0.05,0.005494505494505475,-0.0012210012210012167,312.29778908311164,40.68118136832103,53.35232933407967,410.0911408307968,4.6966611238065,53.35326881554429,411.8067073017135,-4.328497774964053,53.03656966711144,408.6410514179987,-23.123863330162912,47.107535701155896,337.72947327419604,-74.42733323172071,44.62576214078312,0.005716505716505696,0.4271160937827607,0.3899803899803899,-0.03743170409837064,-0.017932684599351205,0.003,0.07940840640840639,47572304.10829974,22758032.587136168
R16:parametric:+0.05,-0.0024420024420024333,-0.0012210012210012167,322.57492876895986,38.0378492652127,52.64504444530726,409.1500094079023,4.256618820925154,52.99415688895577,410.80290291748145,-4.4022037159283,53.52792445586724,407.25170222019506,-23.3378337931834,46.09595497715155,332.53479989165646,-74.97895189634534,43.334977624005546,-0.002645502645502636,0.4252907586240919,0.3904983904983904,-0.03414486747820068,-0.016705516705516642,0.003,0.07941220507887176,50952173.582687765,23660250.500729285
R16:parametric:+0.1,-0.03785103785103772,0.0012210012210012167,329.5317442901924,36.60405981366003,56.57881605055353,409.80344114788613,4.033272990632873,56.73497865652758,411.13201325956334,-4.393894899613045,55.51192931133354,407.6821574370652,-23.340836054473066,47.20831650252788,334.65035435210393,-74.87743474305103,43.327679477595396,-0.037863371196704396,0.42606775940109276,0.39281089281089276,-0.033682367015700446,-0.015953182619849238,0.003,0.07959066242399576,46626125.89687672,24612247.434445594
R16:parametric:+0.2,-0.00366300366300365,0.0012210012210012167,339.50846725685693,34.25942066142379,52.41058641017795,410.62747833189655,3.6869005782106203,52.77689079846204,411.3583892927866,-4.423430953919894,51.23183436408307,408.0516408241695,-23.38971698086568,45.77042035836662,334.47265252425706,-74.68220804261566,43.2639450885941,-0.0037863371196704397,0.4263205929872599,0.39460539460539457,-0.03194336527669851,-0.014954181620848236,0.003,0.079842521675855,51419013.003459364,24782275.036846623
R16:parametric:+0.5,-0.01892551892551886,0.006105006105006083,360.9864262010726,28.59445171992185,51.89641971917782,410.93542522656224,2.897429546120873,52.84151294123966,411.50578964450904,-4.471451328082257,52.142947436572705,407.7438853846261,-23.33419201367127,45.516055229412494,333.9979279715841,-74.80971388981831,42.09384193071831,-0.018796018796018728,0.4260369260369261,0.397738064404731,-0.028619528619528517,-0.012284012284012248,0.003,0.08017661350994684,51425289.972595006,23550210.991968933
R17:open,-0.0006105006105006083,-0.0012210012210012167,7.9764348274034615,39.152013637544826,55.18182640232854,10.251073112592346,4.437707450098005,55.70593111587003,10.285748064884887,-4.338393506470437,54.99583373212303,10.210789906811982,-23.288833334585277,46.95639382514017,8.37927252715603,-74.8412939395126,43.94147732304802,-0.000425500425500424,0.012777346110679398,0.009897509897509862,-0.0035890035890035763,-0.0004193337526670847,0.005,0.0019908548241881503,1208965.9922360592,610166.3667311233
R17:short,2.5,0.006105006105006083,0.03085141170131526,30.734013529412266,39.99988198197136,0.030423541376271866,2.0321926532253443,40.000441213193156,0.03483680738463238,-10.2155390641115,41.11375475515149,0.026004612485674844,-28.402242546037435,38.506240705749846,0.03542641818568547,-76.6329661264489,38.92681745399801,2.5,0.0,0.0,0.0,0.0,0.2,0.0,26638.997890147184,33348.78095678153
R17:parametric:-0.5,0.009157509157509125,0.004884004884004867,629.4706485673795,38.925222963767894,51.57894652325252,809.5363838955215,4.424245841052393,51.97350265393826,813.0961331475027,-4.3809658965086715,52.07842058572094,805.8221860194069,-23.382162776087938,47.33845728879262,659.3943692214361,-75.24651714245415,44.912406301110266,0.009435009435009401,0.8416090082756751,0.7724189390856058,-0.07000407000406997,-0.033836533836533955,0.003,0.1569582454582455,97052995.36055839,45596899.349751204
R17:parametric:-0.2,0.001831501831501825,0.008547008547008517,393.6534700740531,39.41821448992419,52.65513967367187,508.3590040078405,4.485817887657165,53.24070690249159,510.2964350492759,-4.335616008436332,53.45683825049642,506.85264676446894,-23.13931047117875,46.89410519246442,419.10036800596237,-74.5207801689163,43.41523966335594,0.0014368347701680985,0.5294335294335293,0.48470048470048477,-0.04489337822671184,-0.02149702149702143,0.003,0.09856394223060888,62147404.54782352,28105546.644167695
R17:parametric:-0.1,-0.010378510378510342,0.0,351.4726440160846,39.13344515901797,53.426688006260015,453.79213406155424,4.439352494041756,53.60181365250195,455.71738648130156,-4.333496728265738,53.14226563187851,452.1859300120254,-23.19623699424916,46.78988913520813,372.85619807450826,-74.69186389551109,44.327794197321644,-0.010841010841010803,0.4721698055031389,0.4331347664680998,-0.039670206336873085,-0.018981018981019126,0.003,0.08798700065366732,56565282.87867473,25893308.15916767
R17:parametric:-0.05,0.02564102564102555,-0.008547008547008517,334.8970782864518,39.08212241994874,54.44311432075288,431.20407656835243,4.454983452810916,54.84498207008805,432.68894122380493,-4.314637863404721,53.78097961117851,429.5693510802614,-23.096866882681745,47.2356671768984,352.8823355956987,-74.50853812532712,43.59204495595377,0.025678025678025587,0.44861928195261547,0.41112591112591124,-0.03772770439437114,-0.01793885127218455,0.003,0.0835886520886521,50881188.16469936,24482437.94014091
R17:parametric:+0.05,0.01098901098901095,0.00366300366300365,303.1109832137474,39.14959335932308,53.61147996965445,391.395982794969,4.430466763794653,54.90866598717409,392.74484879322483,-4.344564574752834,55.50998249705603,390.02939812321364,-23.143677454651673,48.64812539226044,321.0472265195082,-74.4920111405738,45.39064979901211,0.010742344075677372,0.40711757378424035,0.37347220680554016,-0.03387353387353398,-0.016286182952849566,0.003,0.07589483356150023,44724557.82884855,22168786.67294804
R17:parametric:+0.1,-0.015262515262515208,-0.0012210012210012167,290.42566848550143,39.17855601463038,54.71625683562469,374.4084127806964,4.442609766540497,55.21211455989481,375.7799102202262,-4.355659038747032,55.03409734571978,371.9715108992864,-23.18568479934537,46.67302856686278,305.7391228307802,-74.5887805247415,43.60029904505797,-0.015669515669515615,0.38867305533972196,0.3568406901740236,-0.03242436575769898,-0.015663348996682702,0.003,0.07256425056425056,46181124.306042105,21606972.08265296
R17:parametric:+0.2,-0.0006105006105006083,-0.0012210012210012167,266.4364878274424,39.36199223307252,52.53768007680727,343.93319805556246,4.459141401836653,53.470679450346125,345.04758721789165,-4.366435712540225,52.27766871983474,342.1200556019345,-23.291864506977795,46.02461082460131,281.4267603214279,-75.08894075120236,42.86988841164987,-0.0003576670243336898,0.3577595244261912,0.32778949445616107,-0.02993919660586339,-0.014442347775681059,0.003,0.06667773584440248,43507233.962351784,20898854.8349885
R17:parametric:+0.5,-0.006715506715506692,-0.008547008547008517,214.9449573561226,39.0760771810718,53.437740754293074,277.24010307149206,4.4531560188822255,53.47176055820241,278.1968794156004,-4.346972903474733,52.044822847681615,275.89947123117946,-23.25012086157312,46.082998803815336,226.683761276502,-74.74061158914925,42.61229644429192,-0.0070115070115069865,0.2883782883782887,0.2642049308715979,-0.024222690889357468,-0.011482344815678107,0.003,0.053780663780663845,35353643.42320172,16778417.33263396
R18:open,-2.5,-0.0012210012210012167,0.02766593074558409,32.43013412295718,39.99999028394101,0.03237619571805205,4.478346280484867,40.69620668158323,0.027106971603771846,6.865442035832831,39.99994835599489,0.03178925741894359,-1.6093101770329632,40.11047278409301,0.0323280900407443,-16.918845005413274,41.14667806129013,-2.5,5.0,5.0,0.0,0.0,0.003,0.9904236874236874,22123.545187238306,28808.610829105404
R18:short,0.0006105006105006083,-0.0024420024420024333,7.971809729395137,39.206755080112046,53.609335883085336,10.265834512636975,4.454388895226286,53.724393493412364,10.301386448109056,-4.385772419922348,52.56483776102205,10.217968476083161,-23.385940184653315,45.33959990491891,8.33562824612324,-74.71956820047905,42.382163514199384,0.00011100011100011061,0.012851346184679473,0.009953009953009918,-0.003576670243336897,-0.0005488338821672135,0.005,0.001988104488104481,1276513.410496072,577486.4598273623
R18:parametric:-0.5,0.0030525030525030417,0.006105006105006083,162.45673218020968,39.20787502037555,53.34500340938004,209.8230359733905,4.459360813183159,52.98708694062866,210.52562041751528,-4.36833425430322,51.966800428056246,208.99623623755943,-23.37263703331867,44.68838500091766,171.73620750670457,-74.92200427902243,41.61487669239684,0.002633169299835957,0.2184852184852186,0.20021953355286706,-0.018364351697684966,-0.008769008769008737,0.003,0.04068778135444805,26991216.386316206,12421358.269754998
R18:parametric:-0.2,0.015262515262515208,-0.006105006105006083,255.85840704378975,39.27531267013418,52.27822385540206,330.377014704541,4.465209255373539,53.53678569349381,331.46233819162154,-4.35475228572661,53.32148765345426,328.22584714214236,-23.37786790049552,46.06921713507276,269.1170273918727,-74.94193805612429,43.63311887663116,0.015410515410515356,0.343119843119843,0.31461748128414774,-0.028934028934028834,-0.013653013653013614,0.003,0.06407346974013639,38774686.045583256,19197086.43285653
R18:parametric:-0.1,-0.0073260073260073,-0.0073260073260073,287.430386293124,39.125477060857065,53.98941499670553,370.64023767242014,4.451810695911307,54.59894876721215,371.98853777828174,-4.36845585455413,53.87778103017604,368.6895709660269,-23.258289188235686,46.84962519900911,302.86378060784347,-74.60520673998562,44.10688526198564,-0.007091673758340401,0.3849915516582183,0.35348602015268665,-0.03205436538769861,-0.01560784894118244,0.003,0.07189909473242807,46654586.86456476,21025535.415868662
R18:parametric:-0.05,0.012820512820512775,0.00366300366300365,303.132955653655,39.109444676253915,53.435307079969604,389.85594608436463,4.435215636242883,53.7377299060724,391.27746030878654,-4.332598666478849,53.23807924766849,388.40809269639874,-23.22935498497106,46.99104584889231,319.48101206827437,-74.65750449784093,45.02542201272228,0.012962346295679583,0.40552657219323873,0.37195520528853865,-0.03411403411403421,-0.016144349477682764,0.003,0.07557722524389193,50712683.939324945,22029719.868856654
R18:parametric:+0.05,0.001831501831501825,-0.0012210012210012167,333.7120106211366,39.34579230533072,53.36154245564621,429.66613215104087,4.468395345815659,54.26202867327946,431.37967859049803,-4.358359019726988,54.76378551915324,427.8813390254404,-23.246332493991886,45.837642485225,351.15658525321334,-74.39143451837967,42.746789919210066,0.0014245014245014194,0.44657811324477964,0.4097384097384096,-0.03675337008670372,-0.01819168485835189,0.003,0.08334574067907399,53566808.587256595,25141786.96154722
R18:parametric:+0.1,-0.006715506715506692,0.013431013431013383,348.80117759311537,39.07352896180259,50.66384611931618,450.0782722534184,4.426179979127216,51.87241935277362,451.46491137756965,-4.345267953606824,52.825219616699044,447.70347059302827,-23.256265299474567,45.405465878820806,366.9842585051215,-74.80178767335285,44.57466361725737,-0.006999173665840307,0.4671624671624673,0.429200429200429,-0.038825372158705365,-0.018857685524352116,0.003,0.08721846055179387,55319864.855762444,26112736.478330333
R18:parametric:+0.2,0.0073260073260073,-0.0146520146520146,379.8442845643143,39.23184017947708,53.054345695724706,490.89856103633207,4.467063704032364,53.714929586231534,492.5852869167785,-4.379328757940257,54.19492196433232,488.08636571652045,-23.32314920448354,47.04394736381046,400.69744298901674,-74.96541555378852,44.30002048495385,0.007412340745674052,0.5097063430396763,0.4681429681429683,-0.042593209259875774,-0.02067068733735416,0.003,0.09512562745896083,59828640.39293006,27578302.068950087
R18:parametric:+0.5,0.005494505494505475,-0.00366300366300365,470.95685848644484,39.36870306519043,52.32324820512214,608.2841909481323,4.4820129829826785,53.09236304485602,610.124152260962,-4.355772069611523,53.74558163847193,606.4766165474987,-23.186422296104453,46.43305131469204,501.39930683297496,-74.68084324125357,44.43735200624442,0.00567950567950566,0.633995633995634,0.5802962469629137,-0.05318138651471966,-0.025579358912692154,0.003,0.11793158693158698,77235048.46463847,34957700.90779792
R19:open,-0.0030525030525030417,0.004884004884004867,16.150360270558124,-47.78643116526819,54.459236483377275,2.088904050305873,-85.28909235731675,54.76606488163513,0.10782387648406111,-93.9358937107774,48.767078316483676,0.03711961730068058,-108.89315651433793,40.1831669616315,0.027517572484744665,-129.8521503328068,38.344614381756045,-0.00318816985483651,0.0036013369346704627,0.0011963345296678515,-0.0019240019240019078,0.0009928343261676603,0.111,0.00012599129265795914,36896.33942390353,32084.51153338024
R19:short,-0.0073260073260073,0.004884004884004867,318.21770990508844,39.25914138919016,51.99587777269383,409.63288899312687,4.5802167750789495,53.168417214012976,411.0085506760209,-2.133988177022796,52.3533715577388,402.1928798160996,-11.508948500096643,45.773005610933076,351.53222541197295,-31.216794627144587,44.09814514340724,-0.007659007659007632,0.4118659118659117,0.39087455754122435,-0.02303252303252295,-0.017137183803850632,0.002,0.07962251328917999,50505261.98477363,23624437.475017466
R19:parametric:-0.5,-0.006715506715506692,0.006105006105006083,319.33193195862884,39.17665788505025,53.728951239351375,410.81100259104835,4.494933297199253,53.89312059454993,412.00540115335275,-3.2456581895599452,53.653662983451525,407.69105607114415,-17.326729110861955,45.75777442286762,371.20976827520866,-53.58531321421894,43.14051546970627,-0.006524339857673167,0.4210234210234209,0.39192905859572524,-0.029260862594195816,-0.01702618369285029,0.002,0.07975970325970326,48899042.119301125,26221382.095818844
R19:parametric:-0.2,0.006715506715506692,-0.008547008547008517,317.6150183681215,39.33439289984548,53.84729913112832,409.71012539814376,4.498861162612725,54.44399343213348,411.0197985021892,-3.927186805752928,54.03842654968129,408.0076453183667,-20.840248643462996,47.249461525861925,353.58475310276526,-66.92244273666961,45.91260377221198,0.007036173702840345,0.4234407567740904,0.39012839012839007,-0.03413870080536735,-0.017057017057016982,0.003,0.07949138515805176,53118800.75833462,22945543.72606489
R19:parametric:-0.1,0.010378510378510342,-0.008547008547008517,318.6914754468192,39.25882534917027,52.533075006624784,411.1521896349773,4.464328570169894,52.92748627610737,412.53050656481446,-4.151452810007912,52.17072334660686,409.01500880018335,-22.230681671953754,45.41080850572021,344.5968402329255,-71.20774657583452,42.30605045608093,0.010908844242177538,0.426511759845093,0.392052392052392,-0.035150035150035466,-0.0172913506246839,0.003,0.07972312872312873,50552068.74736773,24899399.02360957
R19:parametric:-0.05,-0.014041514041513992,0.0012210012210012167,317.44068818603495,39.27416914510454,51.46953683673361,410.60905069080684,4.46127943186913,51.48003314801316,411.97124573493915,-4.286128630439804,52.10859037295671,408.78445572671916,-22.856030834302118,45.564727648726844,337.88161492624243,-72.93378502180411,42.38694727493338,-0.013313846647179934,0.4260184260184258,0.39133705800372504,-0.03510070176736832,-0.017180350513683815,0.003,0.07957675657675657,51317655.225824006,24733337.470331594
R19:parametric:+0.05,0.006105006105006083,0.0012210012210012167,318.72511180615595,39.23319600790269,54.405492328447146,411.0640633439426,4.457460523551303,54.55259532411256,412.37129067335377,-4.473811845936174,54.43424110909022,408.93362581189547,-23.793215191729495,46.862264895257084,330.4757091903419,-76.59650539857896,44.04182598994114,0.006037172703839349,0.4268632601965934,0.3921017254350587,-0.0349588682922015,-0.01728518395185056,0.003,0.07966024716024714,49272522.91974755,25320913.92688988
R19:parametric:+0.1,-0.0006105006105006083,0.006105006105006083,316.7021853716587,39.32290310753645,50.39721240154631,409.48492091042914,4.461171174554503,51.682722226689734,410.9804504471403,-4.531104363146259,52.27278257452673,406.7671394810814,-24.265824820459528,47.14130472689412,324.92177438359374,-78.10600263701626,45.16193819353898,-0.000696834030167361,0.42538942538942526,0.39036272369605696,-0.0350637017303687,-0.017229683896350947,0.003,0.07936245236245236,51553047.10675246,23628913.989832565
