,R1,R2,R3,R4,C1,C2,R5,R6,R7,R8,R9,R10,R11,R12,R13,R14,C3,R15,C4,R16,R17,R18,R19,R20,C5,C6
dc_out,0.0,0.0,0.0,0.0,0.0,0.0,0.0,0.0,0.0,0.0,0.0,0.0,0.0,0.0,0.0,0.0,0.0,0.0,0.0,0.0,0.0,0.0,0.0,0.0,0.0,0.0
dc_ina_out,-1.2332475544601679e-23,1.2332475738091301e-23,7.646894670232872e-23,-7.646894707296926e-23,0.0,0.0,2.7930183596633826e-32,-9.894644138437294e-32,1.1748922397197464e-31,5.988765419556574e-22,-5.988168399266045e-22,-5.988316556547897e-22,5.988318107734913e-22,1.5535417591361493e-28,-1.2557821074817552e-28,-2.9807891255338814e-29,0.0,-5.759690500154064e-32,0.0,0.0,0.0,0.0,0.0,-1.7914044537296338e-31,0.0,0.0
dc_rld_out,6.909202700372687e-24,6.909227701460062e-24,-2.5290258339744426e-22,-2.5290256379952228e-22,0.0,0.0,0.0,0.0,9.157907463196852e-32,-8.956433499006521e-29,9.157907463196852e-32,9.157907463196852e-32,-8.956433499006521e-29,7.129868012990313e-21,7.129868012898735e-21,-1.4260802041667287e-20,0.0,2.7636880593903526e-22,0.0,0.0,0.0,0.0,0.0,3.388425761382835e-30,0.0,0.0
acd_mag_0.05,-0.00020326762366078486,-0.00020281672015998935,0.0012603840001063173,0.0012575878265533701,-2.384980024341548e-09,-2.6456055515649068e-09,0.18457445591347849,0.18457445590604524,-0.3691857834574851,-0.30646910046169057,0.30643854855775626,-0.10216399049732114,0.10216401695557531,2.661340931071428e-08,2.149717408426327e-08,-1.5616345821587618e-12,1.0851358250385242e-11,-6.96729275116986e-12,0.16337625422757743,0.1633762541197482,-0.39834705354027744,0.3983073365174275,-9.981174691259246e-10,-1.0003852974352136e-09,3.0008755989190995e-08,-3.20070003034087e-08
acd_ph_0.05,-1.0144607874877738e-06,-9.899610932406785e-07,-1.1946270537242807e-06,-1.329931552706538e-06,-6.251529327161716e-06,-6.2376601951831905e-06,-5.069322893946956e-08,-5.069419703802904e-08,1.016260982760748e-07,5.520135669966954e-07,-5.515420549933434e-07,-5.406284799120103e-07,5.407946848328803e-07,1.4020227361134298e-10,1.1311951638964663e-10,4.800488724672913e-14,-6.400651632897217e-14,5.480557960668242e-13,-0.31603907252103364,-0.3160390722340244,4.196574881850594e-07,-4.1907841723142395e-07,-0.0001256675068943593,-0.0001256662903105022,-1.2345856898041092e-09,-0.0002513326887280105
acc_mag_0.05,-2.2011073078893367e-07,2.112684520060983e-07,-5.469902382834615e-05,-5.5130394487132795e-05,-8.556808037769787e-10,8.558351090211702e-10,-4.433704050163954e-12,9.245011011018037e-12,-7.422226834913298e-12,-0.00043119171506631203,-2.1783814181679499e-07,-0.0002159043113054182,-0.0002154730279407336,-3.3525354055815926e-12,4.91870251599483e-12,8.35797231845059e-13,7.881797715063213e-12,7.893927336778132e-12,8.76415863946901e-10,8.688417201588974e-10,-2.1026702067599687e-09,2.1024605609251992e-09,-5.268538375293755e-18,-3.4300066433796195e-12,1.5840102329119713e-16,-1.6894867043665574e-16
acd_mag_0.5,-0.0002339252626934289,-0.00023341133457249028,0.001450423550296228,0.001447199235829942,-2.735277094126662e-07,-3.044900378307619e-07,0.21241415513290401,0.2124141551275215,-0.4248707433138551,-0.3526943886591767,0.35265922857696963,-0.11757357090357524,0.11757360135247516,3.062204315316384e-08,2.4749637019476993e-08,1.7192867179316487e-12,-3.236687495500112e-12,-2.8394280644628744e-12,0.0031126319130184935,0.003112631957915322,-0.4584304606794613,0.4583847530659809,-1.1489152378682342e-07,-1.1514375747573331e-07,3.453480029429847e-06,-3.6834902833482483e-06
acd_ph_0.5,-3.975177540686209e-05,-3.879179196096928e-05,-4.68091237102949e-05,-5.211044354689919e-05,-0.00024495611686891033,-0.00024441158683739914,-1.9864755429967367e-06,-1.9864847642100012e-06,3.98222697599731e-06,2.1628522409116163e-05,-2.161000316788186e-05,-2.1183168867818848e-05,2.1189707846469017e-05,5.499963847614552e-09,4.4249243944286125e-09,-7.357767915108788e-12,1.432168460493479e-11,1.3871009073516676e-11,-0.20499511755697844,-0.20499511731047262,1.645360296076836e-05,-1.6430899158035663e-05,-0.004924338169978446,-0.004924290506965324,-1.1999092983512556e-07,-0.0098485136084704
acc_mag_0.5,-2.474769241256515e-07,2.375543079120836e-07,-6.146748194369396e-05,-6.195212655229323e-05,-9.623773499122204e-09,9.612436205004089e-09,1.0662126263502973e-12,7.900663129988541e-12,-2.012471798669183e-12,-0.00048456058292932735,-2.4480258205876224e-07,-0.0002426269151599241,-0.0002421422734131422,-7.252694629650346e-12,4.282147672215759e-12,6.7989363520605126e-12,-9.973626685286704e-12,-4.075546010752536e-12,1.2730409977455936e-11,1.363342255353748e-11,-2.36412728926958e-09,2.3638915749673775e-09,-5.92496051434801e-16,-7.746434358635984e-12,1.7809607186449768e-14,-1.8995770698657575e-14
acd_mag_10,-0.00035889259102000207,-0.00036119987158855744,0.0021911567700955968,0.0021823558098756266,-0.00016442826778348817,-0.0001831311500118981,0.32679101980104297,0.3267910198324385,-0.6536473212303323,-0.5426063803625104,0.542552287981631,-0.1808828154163555,0.18088286224917643,4.711347306242373e-08,3.806543754058693e-08,-1.3087741893517711e-12,-3.951299174722332e-12,2.5476138800358907e-13,1.2050076176331346e-05,1.2050166846408868e-05,-0.7052776640955266,0.7052073447031492,-7.69065668457149e-05,-7.706439329392688e-05,0.002118355338205514,-0.0022723055615624286
acd_ph_10,-0.0005456678020848153,-0.0005324394276765923,-0.0006278873731198231,-0.0006993063907116301,-0.003302570054877258,-0.00328930501397851,-2.727374836778214e-05,-2.727389235720024e-05,5.4676216090603774e-05,0.0002970964719148816,-0.0002968423566848821,-0.00029098206834826467,0.00029107163205586143,7.535179369972405e-08,6.089895758919109e-08,5.165587921222238e-12,2.527640547910569e-12,-8.412913244615592e-12,-0.007083251578301919,-0.0070832514235306815,0.00022591107067072367,-0.0002255993435713785,-0.06779566776223087,-0.0677949786445031,-0.000397773297422868,-0.1351929208015459
acc_mag_10,-6.073089090994045e-07,5.833982287250742e-07,-0.0001243299579998974,-0.00012523036014369516,-4.027617165215551e-07,3.7721285121272893e-07,-4.971777278226538e-12,4.3326497631048366e-13,-2.1890339118820224e-12,-0.0009907811116135806,-5.005478520332776e-07,-0.00049609931739261,-0.0004951083257177502,2.3567835250869622e-12,-1.5542973559049744e-12,9.78208080338047e-13,1.707185690043314e-12,-1.2275543311489895e-13,2.52432535988207e-13,-1.9159538905465362e-13,-5.8068041790305446e-09,5.8062252142305975e-09,-6.331993723635922e-13,-3.4481677079453924e-13,1.7441179926843542e-11,-1.8708707676393234e-11
acd_mag_50,-0.00033523088500344363,-0.0004131695076398789,0.0015994632857070498,0.0015302825603615913,-0.002672003624940714,-0.0030059061645892806,0.33065945949443787,0.33065946051169764,-0.6613849743340011,-0.5490167031286836,0.5489619723571239,-0.18303692978366845,0.1830369766375039,4.772879113961987e-08,3.8408418911001606e-08,-1.1952318798506255e-12,-1.0139039664544837e-10,-3.2690102696769247e-13,4.877662641110789e-07,4.878583276127986e-07,-0.7136266830853019,0.713555531646667,-0.005678740464638257,-0.005682309613017744,0.049303906766360546,-0.06066320266206557
acd_ph_50,-0.001289475581328936,-0.0012552461972799374,-0.0009560445673702453,-0.0010755141086828844,-0.005647344915207483,-0.005403063108873315,-6.464850179657304e-05,-6.464881805589891e-05,0.0001296020143204316,0.0007099724406104211,-0.0007093704175351317,-0.0006954791597537653,0.0006956917619155425,1.7863410470225148e-07,1.443171861667998e-07,-4.77004863073898e-12,4.094334255186704e-11,-8.902390225282909e-13,-0.0006716035525832591,-0.0006716031999644288,0.0005355195447225093,-0.0005347806378548581,-0.1702820907212706,-0.17027851826032825,-0.02330408421926168,-0.31725586255701993
acc_mag_50,-1.9713831985132246e-06,1.9025329085491572e-06,-0.00011412123695920977,-0.00011322843887389779,-2.6796117838664107e-06,1.0915836570353788e-06,-7.483789992393848e-13,5.151528977443011e-13,-2.9240467075238973e-14,-0.0011131414053433858,-5.623658333292096e-07,-0.0005573669936021448,-0.000556253618085091,3.1567100358044514e-10,-2.572670598458263e-10,1.1782284826495713e-12,6.052746412139624e-11,4.4034733466293066e-11,1.7547457749554836e-14,-2.2030684171796074e-13,-1.8890839115751415e-08,1.8888955623425974e-08,-1.5032533821160402e-10,-1.5056469092344564e-10,1.3051532300073949e-09,-1.6058519514930248e-09
acd_mag_150,-2.786022288283427e-05,-0.00038754521661850025,0.0003845772038842129,0.00030306382231537764,-0.0029497666772910955,-0.0035754467414965863,0.1662628203390144,0.16626282519790145,-0.3325588588939575,-0.2759806294747243,0.2759531201051972,-0.09211206102499274,0.09211208229680026,2.4318086806858777e-08,1.8778249779664596e-08,-1.5385407151976996e-12,-4.665475878340136e-10,-1.0168156050542841e-11,2.7255884867008683e-08,2.73022071631243e-08,-0.3588279330402213,0.35879215808585513,-0.11406525214095842,-0.11406640071458013,0.05564341078323802,-0.2837777885070852
acd_ph_150,-0.001670315448314006,-0.0015929447384749234,-0.0003008418895793403,-0.0003646463897912275,-0.0034831275266752936,-0.002744761114632313,-8.338962396287883e-05,-8.338969444689369e-05,0.00016717234073791327,0.0009336513651759208,-0.0009328759120073914,-0.0009149566076216658,0.0009152319698085457,2.308291781406619e-07,1.858286068650488e-07,-4.772926381651749e-12,1.3932294940705688e-10,-2.0618340067797077e-13,-9.625502054102132e-05,-9.625456690683168e-05,0.0006918206845124688,-0.0006908674682412764,-0.23182361829679643,-0.2318070858139221,-0.18451897970854297,-0.2791248974096476
acc_mag_150,-4.150873823359278e-06,4.126856523356014e-06,-4.783592866745551e-05,-4.2566504609130995e-05,-2.1116287001228627e-06,4.276040456332756e-06,-1.4310634745429607e-13,2.7775264676124436e-13,1.8453812553753523e-14,-0.0008235392010099699,-4.160655322678171e-07,-0.0004123587144123045,-0.0004115350082528518,4.84251445403168e-09,-3.9511652993594585e-09,5.955300310122139e-12,8.971938117794387e-10,8.478002112371308e-10,2.9032143881447834e-15,-1.7002286484372304e-13,-4.036022684175746e-08,4.035620295986344e-08,-1.2829824625103631e-08,-1.2830381271745167e-08,6.258656238353586e-09,-3.191874115704015e-08
zlo_mag_10,0.0007368262548947073,0.0007368262541932034,2.7697040813929834e-05,2.7697048613632243e-05,-2.201062368352768e-06,-2.2010599803590027e-06,0.004139073717892337,0.004139073718289603,-0.008278974280635412,-0.0068728011065134756,0.0068721159573013075,-0.0022907772665868385,0.00229077785998899,5.969309681999303e-10,4.819665214932745e-10,-4.8677996403766685e-15,0.0,3.1775914319125477e-15,1.5262400385690127e-07,1.5262515144066648e-07,-0.008932914512349295,0.008932023860125716,-9.740841407425226e-07,-9.760831399846406e-07,2.683069109749855e-05,-2.878059572859159e-05
zlo_mag_100,0.003864884118482894,0.0038648843103761656,4.750740200608894e-05,4.750749512243864e-05,-0.0002712563766348761,-0.0002712559725380854,0.0166228036786204,0.01662280388940759,-0.0332489282217613,-0.02760164364372993,0.02759889205619971,-0.00919991957580987,0.009199921964460128,2.5180374013495796e-09,1.8247338639967756e-09,0.0,0.0,0.0,6.129651221664501e-09,6.134278904572465e-09,-0.03587524290028708,0.035871666054494274,-0.0031964043000516783,-0.003196839763128538,0.006903613263417239,-0.013296146342333143
pulse_baseline,3.726708697867356e-18,-3.726708665596186e-18,-1.744747424065116e-17,1.744747425052376e-17,1.9877818261815796e-16,-1.9877804003935105e-16,8.650150691702732e-29,-9.11829084599691e-30,-5.276549327229867e-29,-1.0485708737470129e-16,1.0484666253349841e-16,1.0484923292871217e-16,-1.0484928376301164e-16,-4.8504589541459876e-23,4.3767022913047146e-23,2.875507364878132e-24,-1.862398482276959e-24,2.0133664872136654e-22,-1.1220575861175581e-25,-1.1217320362852057e-25,9.529741268116427e-24,-9.528869763844002e-24,4.713871171149743e-24,4.695424979182532e-24,5.0035514958949716e-24,4.387847009075417e-24
pulse_peak,-0.00022363915227440332,-0.0003021593823230636,0.001517115454436227,0.0014349130418615439,-0.0025967952612722914,-0.0029611096613783774,0.31355832025986113,0.3086095891871158,-0.6222543248293394,-0.5165296657395737,0.5164780672139101,-0.17218881877049524,0.1721888248547743,-0.0031165978953126717,0.002348530003703119,6.741639984463113e-07,-0.0007797192258107726,-0.0008838664259388041,0.00044816520919410913,0.0004481652211046959,-0.6714555708958677,0.6713884915501778,0.0008848684629300196,0.000879478268690171,0.08607177038106832,-0.08424209245937914
pulse_end,-0.00023117465929903597,-0.00023067483643079246,0.0014378365049045173,0.001434728033760212,3.6863796299227773e-06,3.678562005569583e-06,0.21045789120324468,0.21045789647670662,-0.4209578300421974,-0.34944647102766413,0.34941163442928597,-0.11649042298452114,0.11649045307750945,3.360582720511486e-08,2.1966774521992837e-08,-1.440293248186929e-12,8.812612623975307e-10,9.551489667144964e-10,0.02361480633044107,0.02361480637319399,-0.4542086567874968,0.45416336974414023,7.406790260626506e-05,7.406719015331752e-05,-2.2046806596588767e-08,0.0001481571650752261
pulse_undershoot,0.006244493982273758,-0.0005534957298407979,0.00028278218713854026,0.0005411546856761839,-0.0003184258269375991,-0.005061200643736572,-0.02964371724962259,-0.028171382190109267,0.054944626363941415,0.04096092013839006,-0.04094548889364834,0.013861972414486399,-0.013866594217001942,0.007644442212518467,0.006659863127111302,-5.506247506851062e-06,-0.004999727450203077,-0.00016547261210401367,0.031953698499166586,0.03195369326638673,0.053140642530761374,-0.053218014015774806,0.0061377806414993205,0.006166444802868649,-0.08358076951931741,0.09554472216635607
pulse_tail,6.920443149178987e-05,6.9052934694054e-05,-0.00043038333407100816,-0.00042945448501513554,-1.1013504779896208e-06,-1.1092344991512278e-06,-0.06299578658155258,-0.06299616668770239,0.1260045366427489,0.10459917475887488,-0.10458874719286756,0.03486886590724936,-0.034868874916261755,-2.5132732868780336e-07,1.6951904212206742e-07,6.401311089340812e-11,-6.316783077120116e-08,-6.88682241419811e-08,0.11097318584019773,0.11097318574742564,0.13595744337878432,-0.13594388767268115,-2.217247075076253e-05,-2.2172108028529583e-05,5.3684120957013635e-09,-4.4346045588626744e-05
pulse_rise_time,0.0,0.0,0.0,0.0,0.0,0.0,0.0,0.0,0.0,0.0,0.0,0.0,0.0,0.0,0.0,0.0,0.0,0.0,0.0,0.0,0.0,0.0,0.0,0.0,0.0,0.0
pulse_area,-0.0002697395343270077,-0.0002721928270576695,0.0016187060897174348,0.0016125254815725512,-7.85088317360279e-05,-8.60520415477817e-05,0.23927988091073202,0.23905964094997129,-0.47838845547882586,-0.39711362326179495,0.3970740361370063,-0.13239050567964114,0.13239053983586438,-0.00013971801886473773,0.00010354254133269404,3.5233857634179696e-08,-3.697926033503823e-05,-4.06006218536264e-05,0.013338211583393695,0.013338211640927619,-0.5161740647603755,0.5161226014279648,-0.0016181774292679712,-0.001618108625405131,7.315902798148848e-07,-0.0032347653590066223
