condition,acd_mag_0.05,acd_ph_0.05,cmrr_db_0.05,acd_mag_0.5,acd_ph_0.5,cmrr_db_0.5,acd_mag_10,acd_ph_10,cmrr_db_10,acd_mag_50,acd_ph_50,cmrr_db_50,acd_mag_150,acd_ph_150,cmrr_db_150
healthy,213.397365196909,39.2667133099788,53.66415837334152,275.21670253646255,4.443504579528497,54.09461214394898,275.90532566268354,-4.614745237535706,54.98531271740753,271.767546150808,-24.101579669128903,56.613077532192875,221.44112822468318,-76.31435179771684,60.66482114424299
R1:open,4.230197579198478,38.79804833287587,-11.822560681078642,5.430224162304004,0.7326895455903191,-9.653238637140333,3.324540802411309,-56.83226370605603,-13.915050527012198,0.8243469394119409,-104.2861643154503,-26.02742357285461,0.22808281883443904,-161.42178659991137,-37.18782689245885
R1:short,212.88610850965543,39.53201819802937,51.19736041143841,275.3086132641193,4.486631718732069,51.611649012219004,276.08588694379046,-4.645894172915124,52.19103325016624,271.21883710913266,-24.133592342149505,53.86736307603841,220.54505536656634,-76.12034819543952,56.79100634403298
R1:parametric:-0.5,212.9954832850629,39.11027428909752,52.57860225459682,275.08201563726226,4.444488158358363,52.68694054418086,275.7530786223795,-4.6347583849255996,52.91650521118447,271.3246949682745,-24.043982385847674,55.3039964174843,221.02714539974824,-76.27495617261292,59.17200095701173
R1:parametric:-0.2,213.66825414305242,39.18741189801018,52.601528275504535,275.5217613959936,4.437752113504363,54.066042176695575,276.07650706061963,-4.576864416993937,54.2720909829595,272.2339668327194,-23.993968540489377,56.732885703066565,221.91703515116433,-76.14176479411753,60.99303816226579
R1:parametric:-0.1,213.6467790455938,39.269633340154954,54.55238774624159,275.29205150365726,4.433074269299622,55.42230423463655,275.89304157936874,-4.609169095768632,55.097551866507104,271.30570841433905,-24.108596508477845,56.539907229490574,220.56130727454303,-76.2426426380415,61.25310882758601
R1:parametric:-0.05,213.65348278514404,39.161036455091256,53.28939623452398,275.05917932499005,4.427027626457345,53.39615895068308,275.92428844358415,-4.579292320261315,53.98065981819151,272.08235590685047,-23.912987095006244,55.35018114551845,222.63576357378926,-76.20913784744717,59.15138148400601
R1:parametric:+0.05,213.1411661562018,39.30350312523113,53.59741472785227,274.9493212140809,4.448043446540195,54.04793053177778,275.7233474451032,-4.632211500401327,55.7399373850095,271.6157622001133,-24.148838205343893,56.70146818191506,221.24625179202158,-76.54471913063016,61.301614101991596
R1:parametric:+0.1,213.69923771470283,39.03141290997782,55.08487696293578,275.30470946960867,4.397942516851942,55.58145495713389,275.9102961309638,-4.649671355646544,56.54746902944371,271.96894617199143,-24.202697780542653,57.25545839516106,221.71100781797085,-76.50553068622021,61.15403973704745
R1:parametric:+0.2,214.16441569396244,39.09925163634058,54.99225749274321,275.43759540936816,4.409324660756674,55.185362061779955,276.346851714786,-4.643919913226993,55.05944162504271,272.26418237084215,-24.237671604341294,56.88866912584149,220.9008637277518,-76.72019290473858,60.85089244942277
R1:parametric:+0.5,213.89105736622977,39.197295152722056,52.55033417284281,274.86588087934797,4.43254176156597,52.85475697353282,275.67262873978984,-4.601698201530327,54.92104839363872,271.70763677960633,-24.186747266336067,56.15711277732767,221.36035505295376,-76.64007129105124,59.387522316802354
R2:open,4.629067030664506,38.975233637339336,-11.039613858742925,5.95039937614492,2.3849923217507314,-8.858871346421662,4.111976890026217,-25.901131499031127,-12.069030564254904,2.6258733927689653,-18.04244641495067,-15.964248795686334,2.8191033089200905,-37.86396019619481,-15.347485590343936
R2:short,213.6990874368406,39.30809572896938,54.3313094170083,275.13167247761186,4.448339834767486,54.3551015138166,275.84594729248715,-4.563145080976568,54.97622588956511,271.47872077230875,-23.814420202273553,54.63120527388183,221.93261890640036,-75.62017915227294,56.47977979983452
R2:parametric:-0.5,213.5988102431334,39.18665818214153,53.44947009297165,275.3809334669267,4.446799167070356,53.757858086071984,275.9651147120368,-4.598052384195163,56.5337392857802,271.93675409506534,-23.977411478434654,57.3828157671636,222.17765627058756,-76.07333583618605,59.541271788489254
R2:parametric:-0.2,213.25390870759966,39.24685775441424,51.86268099129543,275.4763881617385,4.431095577610943,52.7686035766819,276.008436893953,-4.610988476918838,53.279556213077896,271.8043323811093,-24.06526714948349,56.065560212328116,221.73202060110776,-76.01927638129952,61.1491648661105
R2:parametric:-0.1,213.1306376618532,39.49367910004794,53.34999252090527,275.2311877268877,4.48095384892436,53.66482887326882,275.8345839660799,-4.610994222233632,54.264358086366556,271.42485568810514,-23.98044169749318,54.945186279050716,221.67731426307842,-76.20078593756438,60.155150637163686
R2:parametric:-0.05,213.4048884077507,39.22294140757903,52.50909794719842,275.1996896205028,4.43274677628769,52.687826131895896,275.75119915138714,-4.606020420342215,53.15428838140007,271.4934308683002,-24.13438599073493,55.371326261315865,221.01240909929072,-76.44053025481607,60.597028687518566
R2:parametric:+0.05,213.48050410766962,39.50730345703844,57.093100213492235,275.789908858313,4.4699130591120655,58.1180023663513,276.5743723758617,-4.5891503298178264,58.92641892341017,272.69364760625353,-24.08481350525515,59.90606636850082,221.9786267707081,-76.5763137550313,63.23386523401409
R2:parametric:+0.1,213.99138499116086,39.32505258216611,51.43124962486291,275.48250730509426,4.450814757792981,51.72216539450518,276.0637964122073,-4.629348874212116,52.7566270698847,271.9884209603709,-24.13045722497577,55.699654576661864,221.54015359147226,-76.31724203128508,59.51716163800679
R2:parametric:+0.2,213.17664973197475,39.2348664892072,53.780097542532374,275.3291318671239,4.437197553835231,54.04690942409425,276.0725405286995,-4.622313365683711,54.55205841100242,272.0895897785982,-24.085458732297468,56.51376751248671,221.43088644261942,-76.36012594296668,59.74414138997122
R2:parametric:+0.5,212.63191802517957,39.22907475596987,52.54401027482233,274.9096890216628,4.433465159212991,53.00290348007686,275.7564663625551,-4.688046311258086,53.750054394504374,271.6693373605575,-24.243243005632785,55.09295595135705,220.49071165086104,-76.49907643305761,58.097691786556986
R3:open,213.72318099508297,39.215821996753036,43.65369547421407,276.2497687456931,4.423817301512401,43.9474901756618,276.85815721297024,-4.673210448044008,45.05034235930072,272.06575101398505,-24.14509510610502,47.56332007528118,220.7802595538835,-76.27221001162879,52.31039576396135
R3:short,1.0356165599806968,41.19163409264786,-24.045978555682026,1.5581697625763091,22.19564801660401,-20.497608247933805,9.821332032500184,78.01554082396756,-4.5064370051519775,57.971439209572125,67.95712153126252,10.914703772408394,187.7676402400887,-18.873936491839572,21.122740981979767
R3:parametric:-0.5,213.11295308383995,39.253221685653045,45.56668302240583,275.0815309361195,4.445056355883002,45.79861892683337,275.80240072320885,-4.606992900883193,46.19932244579374,271.578478349434,-24.136587332438737,47.573066531267216,221.2116104105723,-76.29520278290808,52.134588748799814
R3:parametric:-0.2,213.30439969312005,39.3338594233574,51.41044516899392,275.092208823637,4.455146070832204,51.93264053370328,275.8610495903765,-4.567848753721266,53.088604095593794,272.1647838520558,-24.00474219759043,54.94461110461792,221.7194083674413,-76.25508001633176,60.64095796863405
R3:parametric:-0.1,213.9798404177643,39.1003985691787,55.023968438453394,275.4882438574376,4.424563599340974,55.70501587684423,276.07226159599816,-4.608352534036108,56.227509848411636,272.3997448354385,-24.10953827656467,57.65468207366277,222.05806875513116,-76.16075382018099,62.24222716880037
R3:parametric:-0.05,213.03057619677327,39.324492715195944,52.507670013849435,274.9846445600115,4.4455298963078915,53.19741667975583,275.7370546382952,-4.596684367878764,54.97867358139512,271.59719497594904,-24.117126594887143,56.89807884322495,221.2717987520499,-76.30555840649347,61.195969756096
R3:parametric:+0.05,212.10969513254346,39.53260370673567,54.85905677196122,274.9364398165449,4.482531845445804,56.37343462812297,275.56762201484844,-4.635027429174304,56.36325922827065,270.7332386000119,-24.1351412119331,57.3164501321697,221.31944629919994,-76.3128820492947,61.3873693440183
R3:parametric:+0.1,213.55519447904186,39.362451577215865,55.33052569381023,275.2291982496291,4.472024394827876,55.94885817412937,275.96070858149085,-4.643678549486084,56.62513786349351,272.1600561250697,-24.143422970688967,57.23506021134642,222.126049230884,-76.31781465667129,60.59733497809208
R3:parametric:+0.2,213.07165491705464,39.38629401185977,51.694330060980064,275.3544170286802,4.457056800871282,52.16651389177011,276.0193596424228,-4.628074094978605,53.27184470678062,271.4832788097924,-24.149947893992177,54.39542938684347,221.2887505366322,-76.41645509958654,57.96348682330827
R3:parametric:+0.5,212.8426356057547,39.38323702352133,52.27825062876024,275.02170121661527,4.454555321085913,52.65053150143285,275.69524666001166,-4.663987723623841,53.860596937435446,271.23859922278314,-24.201100591584968,55.57876035137552,220.46449922151768,-76.28724948636832,57.78346774744983
R4:open,214.07039196808537,39.45998346429127,44.685510055901304,276.3542968942758,4.448688182110116,44.77052798846168,277.00521482135446,-4.6098001133442335,45.67228961440278,272.6094529841218,-24.055594071123302,48.2829463816536,222.63535495902323,-76.4982365283482,52.665728721402104
R4:short,1.4293464492938006,40.92123166885679,-21.247019750364192,1.9544872378900453,21.706741649613818,-18.528804006751795,12.575077525289622,77.16936036643692,-2.3598765767914105,70.72400729911735,64.87778202831623,12.6416207229025,213.6542060984298,-21.3982577850916,22.24412914541134
R4:parametric:-0.5,212.71541125707003,39.27453973082034,43.32021550485011,274.47826571902135,4.447510184458249,44.318262099644734,275.28548535842674,-4.56704014936161,45.54770261715209,271.2409271201682,-23.95442303364447,48.26688662546474,221.8398305433059,-76.26202002195642,52.664904280278584
R4:parametric:-0.2,212.93324123896917,39.348017597892266,52.007759831010304,274.8245847027834,4.459282304372897,52.79137010754838,275.64493086535754,-4.59382892523233,53.79030375236216,271.82649757522887,-24.092294992030382,55.446702044575254,221.36718100012996,-76.21375010505342,60.48158652965683
R4:parametric:-0.1,213.03102151533417,39.28500522308569,54.95423534735454,275.3663426857007,4.450884689996268,55.52453064007677,276.09169523270253,-4.604319715441413,57.12743602340588,272.02520502319265,-24.079144132758227,57.36612105926631,221.63931803567442,-76.32796557715912,61.4660563770874
R4:parametric:-0.05,213.33609988855255,39.246939349478566,53.00378740203473,274.7424367397804,4.441620245957358,53.76242526573962,275.4598173148278,-4.634718500386616,53.66689577882843,271.4873036324232,-24.104469860576454,56.346212780851914,221.39970197838107,-76.27420316952181,60.423549910440066
R4:parametric:+0.05,213.73715948222517,39.37354691961066,53.23844782452964,275.58167815641104,4.448069997856077,54.09270956743629,276.32712732317043,-4.631457196562204,55.11169389262565,272.0239380902361,-24.185463268427206,56.28735627280693,221.032508428869,-76.44492655242668,60.03449925371346
R4:parametric:+0.1,213.82423934583798,39.14025851105775,53.64039818828203,274.97656870133085,4.409101483483159,53.83889288991628,275.63044903262397,-4.643458194013653,55.505440805063095,271.70062378376724,-24.155947606741577,56.49569435533256,221.2809624698077,-76.43948823315475,60.05242653792255
R4:parametric:+0.2,213.35446146938855,39.26156121850056,55.14102263148203,275.6784956878008,4.467048628829517,55.59776237390197,276.5681083455521,-4.599312218736727,55.90462239083422,272.3989148285089,-24.181502031904564,56.423264094085994,220.9113344024326,-76.3731463196782,60.52978506372869
R4:parametric:+0.5,213.32411682841536,39.31268663683023,52.90272091950085,275.4525837639986,4.4581972486153045,52.973260150088954,276.0858031903532,-4.605169365240358,53.90730136610654,271.5150632726176,-24.09907079038779,55.56381219745407,221.8429233216572,-76.29185398546417,59.37295925677964
C1:open,213.5424536091842,39.3115819162269,51.852129896433254,275.2919324113296,4.450504003090589,53.31037679883252,276.0534487737919,-4.608937104600395,53.945762891535516,272.32379538674274,-24.008039761541628,54.98142674466991,221.51701612940892,-76.21899508020212,53.73010074637531
C1:short,59.79717611353714,39.20442026726726,67.898419781603,76.58754513329394,4.459353230191502,67.64181323358001,77.46325731294375,-4.240173009379321,67.45288985261381,79.78422506472894,-22.210823625795562,68.6439687217095,68.42399189671583,-72.64050170581145,70.79247012976084
C1:parametric:-0.5,212.9645862142251,39.295515679727984,54.526528612615614,275.3892169060029,4.4520288016713945,54.90436025729565,276.1444439650656,-4.580394492106767,54.779735601477924,272.33026632352613,-24.044243820572966,55.757316109299424,222.22106120115149,-76.41793772357983,57.6697793641699
C1:parametric:-0.2,213.3403527638154,39.075100822163186,53.73448124922491,274.8806518748693,4.413118353731252,53.77577742197687,275.5574327108765,-4.640905740574556,54.10686667169871,271.9114806598714,-24.020059260835463,56.98225776702452,221.04595673504085,-76.29784510019316,60.714505229886655
C1:parametric:-0.1,213.1136857618671,39.41890523865568,52.89076246579747,275.2036403638436,4.469901201967031,53.65693250975863,275.731372000632,-4.630386016450473,53.718351599923196,271.3979837921603,-23.98847192486509,55.74009495843583,222.00188657406778,-76.17204281931865,59.06777192846461
C1:parametric:-0.05,213.43595266375652,39.2869375682147,52.57337270343934,275.29299805037294,4.432680127188916,52.79369387617561,275.97372813016267,-4.641811844803284,53.4781129547555,271.2426934985042,-24.145211935305618,55.89854827616919,220.99593697382284,-76.32314389454334,60.46527595345779
C1:parametric:+0.05,214.2108607063176,38.954865928368534,54.18326969943918,275.3801799809952,4.399124585575361,54.39314917404353,275.9954931254579,-4.598727747521873,55.35169050633893,272.019721419009,-24.028169197469364,56.53407030017584,222.54514463057524,-76.10283051079315,61.83529699528252
C1:parametric:+0.1,213.17169130916892,39.26689348785578,51.96099817190746,275.0892695440604,4.434770109227214,51.29279102866885,275.76080502842797,-4.581127356394028,53.38060365267627,271.5947600865847,-23.992105679411825,55.67790351011087,221.60810195275093,-76.13166252261169,59.82885228432677
C1:parametric:+0.2,212.9517262421591,39.332446765739675,52.70460054030272,275.1045234723053,4.464789314534588,53.6466889426126,276.0742803114956,-4.62697876426437,55.55790000683675,271.9705828460089,-24.182394406741896,56.766907060730986,222.02293163571426,-76.44578461713957,61.24894081006401
C1:parametric:+0.5,213.49231512687535,39.30935086370551,52.7312399035852,275.813705600107,4.44986256147727,53.33805380694198,276.4472046620116,-4.627679430033288,54.115151431750775,272.1062609575709,-24.07943419302852,54.616685652828096,222.09866719966104,-76.11275284203305,57.68592510236611
C1:cap_degradation:+0.2,213.62377585462846,39.225499591844496,52.50598794133796,275.49572668127075,4.447895190407763,53.59498762274159,276.2682600153162,-4.559603349558126,56.3306989240002,272.31307399017436,-23.986656075053943,58.336959965840606,222.49394077108997,-76.13583138878671,62.74401834676521
C1:cap_degradation:+0.5,213.76632346813898,39.08233576690129,52.002122336307885,275.2983422063023,4.405552778118782,52.55940082007362,276.0645574894167,-4.62859735065652,52.75868618756431,271.4355407669941,-24.082986227449602,55.71750854869016,221.19206124392718,-76.42873833938995,57.01515208725395
C2:open,213.91041866238538,39.13759031654118,52.979119332810626,275.17664190868584,4.4200493689788605,53.26257789550968,275.98933558615624,-4.65354713547004,53.50718429109837,271.418188691292,-24.262960032082276,53.992098627890826,220.53857024554765,-76.38864420527067,52.0719967868096
C2:short,82.93677686983193,39.29806456916411,70.62601719323284,108.07937973490381,4.455588750864371,70.52063342230966,108.46472937488679,-4.533978372359656,70.6504643696013,106.89423963208459,-23.871662647088133,71.37812811643084,85.92844805195253,-76.5736330728269,73.17878100532701
C2:parametric:-0.5,213.92681910606797,39.098292774227644,53.82429138394606,274.9599950771751,4.434789301193598,54.61133619253851,275.6042437754948,-4.580637577220003,54.92041771968417,271.5737991800129,-23.91277131777345,56.54414089122092,222.41594522598479,-76.25952754353482,57.9066598045945
C2:parametric:-0.2,213.83795531483113,39.184778486931215,53.7165991279445,275.0140752665507,4.436098582456486,54.307442488842845,275.8597991780827,-4.605893378981498,56.33395607225401,272.42094458460673,-24.040769786557032,56.63782211451762,222.2457916299556,-76.29510631041913,61.153599438049625
C2:parametric:-0.1,213.57221014986976,39.239009501397454,53.225869881215466,275.36919034587225,4.464021539010388,53.22959103819264,276.17364759818634,-4.6162831878337425,54.4351780681714,272.19782357226757,-24.07145066956143,55.513139218138235,221.60938306380422,-76.03882494890433,58.964521873258946
C2:parametric:-0.05,213.60555584580788,39.27536986470406,52.91410859777545,275.447712596909,4.457178323940998,53.00488240490547,276.04643271868156,-4.624731240888176,54.29063590013701,271.9683341262493,-24.084121100264024,57.0891818758208,221.6730437563749,-76.26622186453245,61.81315657235849
C2:parametric:+0.05,213.32859687182827,39.27280976299059,54.15331551423138,275.2719350606057,4.43327072551335,54.35112441661839,275.8050644788251,-4.6674263898803074,54.95092259130246,271.61443324379945,-24.26944757518648,56.198462535183126,220.47563840876268,-76.77473751687063,60.04779197240789
C2:parametric:+0.1,212.9858122887887,39.32725085691854,51.271121309920616,275.40637825458236,4.470626404859547,51.67951805061679,275.96488056717794,-4.653212464656057,53.5513607172628,271.6189556560905,-24.169856064770855,54.87295625264434,221.31772722294073,-76.27186394727389,58.675110858672696
C2:parametric:+0.2,213.2364427013247,39.228276655275174,56.038264099654484,274.92032834053475,4.445598461790463,56.2586602379427,275.67799136265785,-4.619532134608184,55.91282166661677,271.71765382899986,-23.992446818118804,57.031307920881545,222.34954236824274,-76.10351135357425,60.214028788970765
C2:parametric:+0.5,213.11294405234054,39.23075783767353,53.55328902499599,274.8396437126476,4.430207128320905,53.57194502656727,275.59361325279866,-4.6214312384146545,54.23069382908335,271.32492041885445,-24.140693693085733,56.27797905288499,220.67532266065763,-76.20222348281776,58.01436312523097
C2:cap_degradation:+0.2,213.68291604611946,39.21685175149786,54.08653977686544,275.16306938774983,4.438447727631326,54.326576967584955,276.07912090278376,-4.606205441771328,55.022053515920874,272.4195068554557,-24.126778148860176,57.693123397501495,221.97544475571544,-76.63107902545025,60.79502467849415
C2:cap_degradation:+0.5,213.10522229950593,39.366324994576786,53.46553098593279,275.2279479355918,4.4670793437536,55.5291520256672,276.0140965277577,-4.580043716234494,55.524091719941566,271.6061432589879,-24.16376501397493,55.74876548911783,221.69886413767074,-76.33478855119961,57.80798199657151
C3:open,213.6814673987715,39.092066567041954,54.06502758260855,275.22893858680146,4.434205540198599,54.56564920475628,276.2439638809019,-4.230578161634174,54.828502897325166,275.47541009821913,-22.912678219745374,57.19715595956992,228.22256034270666,-74.4397011409911,61.43200534651325
C3:short,0.031224794270068357,34.126260613010686,26.357632173002052,0.028258585063457704,12.553928700529397,21.79982648602054,0.03135484269515871,-2.677618417702682,21.75379328846111,0.02878103901128256,12.307188457297684,21.842498190580677,0.030538686123867176,-36.69121390895867,25.073913755340644
C3:parametric:-0.5,213.2504263774485,39.21092908021768,52.54220339883024,275.11548376752575,4.4631964228596415,52.65128684866118,276.2455880971405,-4.411510184219126,53.803335167858506,273.4818150370636,-23.53667910618064,55.65738638801669,223.92263815717854,-75.47837412110528,59.660196864576875
C3:parametric:-0.2,213.03118766175427,39.47120681959675,53.77158289766298,275.3999796749564,4.475840010554678,53.774006077805026,276.1773442874836,-4.53214389270117,54.2364965758313,272.6750193005488,-23.881587588334234,55.64223762445748,223.63856673435384,-76.07309689606957,60.41127126134934
C3:parametric:-0.1,212.89342925591876,39.42927392606202,53.10700344973177,275.1735980990191,4.473914291432822,54.10426571877256,275.7994922551842,-4.620285661333599,54.97900938592478,271.7991041082615,-24.149064046565645,56.66445590427239,221.59397845961539,-76.22137775323574,59.97982726526189
C3:parametric:-0.05,213.38016016751246,39.26089052966798,53.375343819894184,275.6842428563976,4.455374797240232,53.746008082786105,276.3104214794922,-4.560175664193036,55.22473232247593,272.28803873161286,-23.996145394588687,57.63941150414603,222.35659784187973,-76.20344787087477,64.17335301100452
C3:parametric:+0.05,213.45370584792067,39.31005364309328,53.44507484934534,274.92967851442904,4.434368124439786,53.66593464881136,275.5789107980047,-4.638862482336517,54.48681593701949,271.67327183804895,-24.21184619544936,56.42726213986582,220.89491166328446,-76.33608221345537,61.653190654357914
C3:parametric:+0.1,213.5718715996901,39.32827392937237,54.65503004382397,275.3564578516283,4.442512435090589,54.36476669390467,275.82544701116024,-4.674224284539729,54.53447468068341,271.2561936994063,-24.27828748574735,56.5226367367662,220.43810373555613,-76.48176144365272,60.43147601570061
C3:parametric:+0.2,213.43548844173446,39.400346886606044,51.59117094124791,276.007771057369,4.452799285679956,52.8145926079656,276.7128624950693,-4.737519915237072,54.61316271068931,271.64862529490125,-24.4423133962226,56.38803184934399,219.82215447437696,-76.84686897718855,60.39671076102692
C3:parametric:+0.5,213.48778468302484,39.18806923811765,52.25515653504114,275.1479674281898,4.422160787173943,52.53658741405002,275.7350815242843,-4.835800834044913,53.52698444066799,269.59106202839337,-24.566135923789346,55.54095844719214,219.59952204101634,-77.08113908449205,61.060797713643296
C3:cap_degradation:+0.2,213.46554001961783,39.355768246760775,54.25107255192907,275.636834794419,4.467500988826833,55.12952033395258,276.39303596716854,-4.539705231986759,56.095653731506715,273.2537550971405,-23.84153587629212,56.715732442747196,223.53023081592522,-75.9770005027121,61.214557952444395
C3:cap_degradation:+0.5,213.2412165705306,39.34972808243296,53.95143661111344,275.40744442798916,4.465186928290444,53.9765604723572,276.2384908360216,-4.447697947051135,54.18949580453065,273.86682879561744,-23.6204826269467,55.38866685555031,224.14892055572844,-75.6370027777991,58.715537510962285
R5:open,53.003077990317244,39.387058846600176,52.49219507112823,68.33674856117153,4.445663414416926,52.86977526760724,68.51282523368747,-4.626132397499934,53.60484100581967,67.40674076037949,-24.01560977771584,55.029468536726036,54.74856798498283,-76.34235897922525,59.31784856718554
R5:short,374.1576491351527,39.24696702924249,53.68224512283291,483.032271339704,4.435024907041843,53.74945245418509,484.15244858722457,-4.691445256971786,54.42470177670751,476.107500971771,-24.327713066228387,55.603861149974456,385.10859498536996,-76.44718222865073,60.70668170519263
R5:parametric:-0.5,266.7645827154297,39.32285967238358,52.60027208531565,344.35516087877465,4.458023953185959,53.4560897735831,345.2267111956353,-4.626729112080001,54.97393706551443,339.58339876801205,-24.161458406241593,56.22195424570972,277.04056946235767,-76.50006612660248,59.27050651298952
R5:parametric:-0.2,231.06033956236573,39.32097340599896,54.00076391301015,298.3454970124904,4.453955205711879,54.800753485787084,299.1103130871246,-4.601865324770422,55.53884371019765,294.6096603409983,-24.0955478310998,56.42940957962543,240.74592644511793,-76.14665512326914,59.67511029729592
R5:parametric:-0.1,221.0709455006708,39.205652283943394,53.21650545338152,285.93067210975073,4.4432418138636915,53.5108933256674,286.47121447057043,-4.621459983842008,54.69391782120841,282.2611552481035,-24.068303978178996,56.54041844948792,229.83685444125246,-76.29185189883505,60.58045904024655
R5:parametric:-0.05,216.9417349174999,39.28241372795561,53.69744661403453,280.30006803627464,4.437379393384153,54.105685357938185,281.0406331066754,-4.644614481354788,55.04851884113527,277.04853381656466,-24.17367934823712,56.10716532693043,224.7468501491633,-76.34948906368476,60.99542122290471
R5:parametric:+0.05,209.10426468800196,39.426657936208755,49.57636096914571,270.10305975875104,4.465149734890764,52.00321105738732,270.6136285955557,-4.632927360402093,52.561093255704336,266.5149872169278,-24.157086702967803,55.204632672605214,216.25349347323152,-76.61253819304787,60.27783239994779
R5:parametric:+0.1,206.12364762493144,39.25278253514846,54.165546754418195,265.5134927399949,4.4358162991454915,54.83862370518169,266.21388661042783,-4.624141031728933,55.59026808009922,262.1579757979021,-24.154445864753338,57.18160486605213,212.9838743401772,-76.3499401989216,60.23943894853638
R5:parametric:+0.2,199.18730653630013,39.100424572196694,52.9489778795726,256.48579929337706,4.404573923185267,53.374099710372924,257.1317014683612,-4.656684967707566,54.20946370645979,253.41339497802755,-24.220013504170034,55.41913894539776,205.91652450924997,-76.54504124566037,59.13045176155543
R5:parametric:+0.5,181.03754329460338,39.33754298169711,54.250067798664034,233.98095845638522,4.4581701714436806,54.93565772791038,234.58958018396734,-4.588372468970433,55.04256790343384,230.8818771246969,-24.06580877205288,56.66586108965295,188.85990848606085,-76.23785120730248,61.2364343441321
R6:open,52.977430403517054,39.289930504445366,53.85024024700508,68.39481525096127,4.456509236402408,54.155734994548865,68.60797973454716,-4.606991290149406,55.58925492914112,67.63004122959703,-24.056692791240653,57.112938134519936,55.08664807065734,-76.23196477630091,60.288541907870034
R6:short,371.0411399477697,39.53631250923584,52.040070155618764,480.6279219012808,4.493353246456536,52.93392919529698,481.818554622228,-4.642475971810427,53.493475687749324,475.08080429193694,-24.084717607218217,55.12165756302733,387.0043292196442,-76.05385928446441,60.046943704370264
R6:parametric:-0.5,267.11957547702605,39.232429503633696,52.581071969211976,344.6053830339501,4.442136647247266,53.36564867310672,345.53192438433507,-4.633061419465436,54.393647450698595,339.8309226271935,-24.061241577384678,56.5536288893011,277.6956594838101,-76.27667624341397,61.32638072507714
R6:parametric:-0.2,231.11176330078095,39.34037785891583,54.01003697544426,298.06909734925557,4.467820280450171,54.42044073799118,299.02745253008095,-4.626436409261483,54.79960954341995,294.0487229942913,-24.040178540446675,58.34012420431673,239.63457006210868,-76.21481367475965,61.63724048486294
R6:parametric:-0.1,221.6818644891232,39.184615938568086,54.63866687453481,285.9649041793303,4.423622149595105,54.48144346658101,286.7602198547967,-4.657220345684034,55.41411121307958,282.26081935480124,-24.285436367452675,55.91501615109963,228.58919826777213,-76.5673344415818,60.16028976888508
R6:parametric:-0.05,217.4784980432501,39.17259993602249,52.990694051186466,280.5005276827326,4.4406680646894525,53.2411417864159,281.25352547362877,-4.6872465956233835,53.82046572713611,276.0947882984344,-24.30148955746809,55.07061759383775,224.3918387733366,-76.49044398916007,58.2186424967417
R6:parametric:+0.05,208.88552183467488,39.14733986739339,53.0813501525293,269.9106481995943,4.452421194908266,53.29688126426238,270.4802151137046,-4.603747954187942,53.57154504153605,266.6397539670265,-24.04019851263347,55.627781969179956,218.58918037142467,-76.24545364759783,60.02585434269684
R6:parametric:+0.1,206.0543880240622,39.46179742739468,53.5585084163488,265.71443373169177,4.477574979357268,54.66853142303596,266.3531323436407,-4.620181032551243,55.30146168157973,261.95880386591557,-24.016576357088596,57.398823073591245,214.17683126561826,-76.52579490442126,61.53074387908551
R6:parametric:+0.2,198.86685811023315,39.29656849563362,54.58113112170858,256.28862792276533,4.452443354332255,54.5721081471402,256.90506390695225,-4.5972365230056855,55.19681696942342,253.3944990190559,-24.016454417131143,55.91165077658111,207.03977047240176,-76.46675499839228,60.457073606823485
R6:parametric:+0.5,180.95864405330155,39.36685996766448,53.36301062506008,233.81650673601547,4.462867477732329,53.75712348431622,234.3084385911159,-4.632241438440266,53.797378950644834,230.73770152668763,-24.082989010903866,55.886235360130186,187.81062857811943,-76.12652479347032,59.973589001820955
R7:open,212.99440059393476,39.15777918615463,54.145406282868194,274.6177923034282,4.422215748078933,54.30308847581269,275.1979271195906,-4.574250662520257,56.656650541312594,271.57435431612225,-24.042687754594226,57.90806308775594,221.66134034781564,-76.31439246228439,63.43491186038955
R7:short,213.41574416208442,39.31867943414593,54.0913240471895,275.49299052127407,4.439804437166932,54.082657762473964,276.15121052602353,-4.606055069625274,54.83313831931106,272.31532122353894,-24.177011000807937,56.81123407115075,221.1409770541068,-76.47754006957926,61.74028458781683
R7:parametric:-0.5,212.82047262086868,39.32786137134624,52.56939283368435,275.22822622708395,4.456040633023324,53.40239100268286,275.98429032677836,-4.636393550752386,54.58796477161425,271.99639540337586,-24.1658013979074,56.27693354518552,220.7326181244196,-76.41586727575563,61.07853962236146
R7:parametric:-0.2,212.90425068631717,39.314875212748156,51.55545716333069,274.6151301487918,4.443837140559209,52.12795954684505,275.3965661639635,-4.5978036946557195,53.712518490070956,271.60999540847587,-24.119829441493142,55.64117486662275,220.68511442442622,-76.39520225277069,60.405032230249844
R7:parametric:-0.1,213.34196079583722,39.226702944422016,53.27379961685983,275.1390940863746,4.444188501290132,54.66053809167552,275.8515238148856,-4.581108505942187,55.159438955614604,271.8577091812227,-23.889184056157873,56.04327711967507,222.99704955901979,-75.8608829834079,61.472816334989155
R7:parametric:-0.05,213.4857751654394,39.13972609579345,53.890015853598,275.57701489431827,4.437844246421438,53.89325673931833,276.3151030642359,-4.634337681534085,54.87331373521217,271.7076679524077,-24.201351192191762,55.45784895490423,221.21578064153644,-76.44255098896973,59.03970934007451
R7:parametric:+0.05,213.89580451506842,39.10584866388284,55.11921959566069,275.3709538469049,4.413620960862259,55.3741890061509,276.0456717781592,-4.637919452343162,56.56017393793906,271.6846774191877,-24.070510992492594,56.73200761846015,222.26577789537447,-76.43330799899643,60.959172591613815
R7:parametric:+0.1,214.35767775001045,39.198870721715046,54.10402588961378,275.4593252583168,4.437159251057742,54.36034735879741,276.118647804391,-4.623886091922603,54.34543488772756,271.81401833667456,-24.11855818417077,56.58990629324081,221.48432525203165,-76.40793533437767,60.74715870258082
R7:parametric:+0.2,213.86132113091983,39.31315965519695,52.509854097142835,275.5111539121309,4.447876972969162,53.47645966865263,276.34796926495915,-4.641270165191611,54.10520188201601,272.28995246767624,-24.199003654456753,55.58679389953759,221.22677929125408,-76.51781597462278,59.2911140198939
R7:parametric:+0.5,214.11011034227732,39.10253940569708,54.538944040675034,275.6165064705992,4.431606974595603,56.15904661241139,276.27516994535074,-4.602428550159076,56.107471493571325,272.33595092528554,-24.008580769333967,57.51746581565587,222.33611768592678,-76.14011267824625,63.99716204613327
R8:open,213.69258641339394,39.2052072382089,52.408356880295244,274.9829476727499,4.434998277791973,52.71296102011734,275.68061109753523,-4.664068417146918,53.66896460119571,271.4257567335051,-24.41512702706146,56.5213053510959,219.13696512263277,-76.77237001436265,61.32885905918421
R8:short,213.26236415967026,39.245741159735374,52.46764579176251,274.8160496580245,4.434528815369318,53.18349641482686,275.41539235897324,-4.639993317462549,54.448536415700545,271.5059620752307,-24.11457560281829,56.06392821998308,220.94082075175442,-76.53388742702421,59.39445131193963
R8:parametric:-0.5,213.0319504953106,39.46652407028178,53.3419664782307,275.7603866203658,4.481848880444382,54.008794026615035,276.4059395651256,-4.579192667288413,55.232798697198895,272.2366177707515,-24.10081591249164,57.13670539002631,221.90896379389676,-76.63461445071641,60.75001307626199
R8:parametric:-0.2,212.9898223126106,39.29975503655727,50.17957237312886,275.1525936563917,4.4446986053516735,50.40959411545172,275.74692078578016,-4.642147959088083,52.22762570445725,271.7547685416198,-24.187781106805886,56.06871118822936,220.54807003475474,-76.43014560672947,59.88723458997843
R8:parametric:-0.1,214.11995949149681,39.207643558260976,55.63239791990946,275.6193329591265,4.441730516599439,55.518232834147184,276.32548052811825,-4.640284647323617,56.39909703623523,271.89283572485726,-24.278370062669623,57.650015344470674,220.75918654111985,-76.69091348446018,61.905419690153714
R8:parametric:-0.05,213.02122236590884,39.42113001341498,50.6709707946911,274.81147588830476,4.470254458668,51.36289622409072,275.4603627246639,-4.6224968448902555,52.072270309661604,270.924729472656,-24.076670040121602,55.08216635037723,221.89556989427393,-76.29540957360435,58.882525628842046
R8:parametric:+0.05,213.3997188091754,39.1935140173436,53.035234793827875,275.37046969146144,4.437517324089694,53.531233749266576,276.13250970438264,-4.628294382499334,54.19897682432264,271.81591442194605,-24.325269329702458,55.556041318455854,219.69845306131367,-76.55645876237087,58.93481208434679
R8:parametric:+0.1,213.17848286211995,39.35929443838535,53.35493991555653,275.41361836183756,4.461517330224056,53.38083805271579,276.03488054386105,-4.613682129412438,53.836169299472665,271.9926694620985,-24.03312552728222,56.917696765516865,221.25176462148647,-76.14462057098005,61.784234547020766
R8:parametric:+0.2,213.09612617432754,39.25038050576477,54.12952511691224,274.9253326701106,4.429628342295453,54.542035183705366,275.54330974622684,-4.664102618981705,56.3191590543293,271.05812104546783,-24.146291166305893,56.13948632988557,221.29350872658486,-76.55157000397361,59.84953469774858
R8:parametric:+0.5,213.49066843422773,39.37367134017522,52.31656478269083,275.6357629223369,4.463923979463354,52.44821182861199,276.2076794156901,-4.594722314071299,54.04787702036724,272.41956615084723,-24.00778898624631,56.06982208486055,222.50115891386815,-76.06089955034821,60.557276031156064
C4:open,213.44591388413227,39.5085478873554,52.91781389555912,275.59431984954114,4.4669945283419095,53.63453630061501,276.2425579620716,-4.594874167741864,55.30116540894292,272.2784543509565,-23.911247613135643,57.836159097498275,223.2460742744077,-75.81817376918146,63.41083921768391
C4:short,213.5761738667461,39.186340545513616,52.893973827817234,276.10735063240395,4.443811610669028,53.3753063043423,276.78911571631903,-4.6496274286110975,54.353201819617084,272.6031779838988,-24.13778471854939,55.37472901419747,221.98909352370944,-76.16512254211587,58.55389994282521
C4:parametric:-0.5,213.23826432167243,39.198019432867675,52.4889288629673,275.54808547063976,4.45043524216373,53.06597666704354,276.11881998984313,-4.593331299706457,54.14172981153037,271.9066465175925,-24.024975611500285,56.40079507983336,222.47199733993276,-76.15636726755588,60.80655215916801
C4:parametric:-0.2,214.06712119724418,39.24814062434406,52.79788364517074,275.3891436121491,4.4419958198492315,53.519079223125175,276.1216613194304,-4.6230830516571135,53.96055526012219,272.37340046103134,-24.116428805762347,55.90359426724007,221.4623891798853,-76.47523229850198,61.02792302011543
C4:parametric:-0.1,213.73845479991488,39.22735731153727,52.795614884793586,275.3459860456409,4.432050038544854,53.18093365394526,275.9751272701675,-4.627979798201192,53.28805192818743,271.60295869314496,-24.188195719962252,55.94890346390223,221.18516167394787,-76.46394326268907,59.37466179955723
C4:parametric:-0.05,213.86907300463056,39.24845550366315,52.070219280081936,275.0986017152927,4.438807056731214,52.711474259226215,275.7848154973826,-4.59654483891314,53.57240085097955,271.3115418225168,-24.036681416352742,55.3198042185176,221.992436737293,-75.99290575016963,60.6395060416241
C4:parametric:+0.05,213.8805362397588,39.22998151067236,55.15436581952791,275.48900552278354,4.431460111266876,55.76827164202121,276.127229133091,-4.64824159643438,56.46652649007532,272.30975512812324,-24.182751286251165,57.78415189389237,221.70629166254744,-76.37726174009885,59.6666669272002
C4:parametric:+0.1,213.09245953635806,39.23451333874421,54.06091312278548,274.97639748657673,4.469262430896196,54.76086419277846,275.61095986431565,-4.599379500632857,55.54018261711653,271.9952192111654,-24.056169935032074,57.23558776031295,222.32920117746187,-75.9936788650522,61.908621325170074
C4:parametric:+0.2,213.1104911459407,39.29043520913847,52.083757744060684,274.78629828075583,4.442773747587575,52.915278352543574,275.697889140889,-4.608313027340975,54.90755268919958,271.44064555728596,-24.19264571581986,56.78397726056836,220.17288180350187,-76.40487644785144,60.61874027906142
C4:parametric:+0.5,212.32728840455064,39.344592680989834,53.22925433712367,274.9445634669499,4.4655408476621155,53.58814312519079,275.71803541964994,-4.614084897079473,54.67131841178914,271.91849020188585,-24.07289648738176,56.6225489751361,222.3597291422269,-76.43756344151784,59.96626526094427
C4:cap_degradation:+0.2,213.93365218730418,39.1046587106208,51.94582493780428,275.4545139873341,4.4100530988730995,51.936121658869354,276.1609694753083,-4.617592812139127,53.9781748365821,271.9516604489847,-24.13038877125126,56.17306288956571,221.5640364414724,-76.43200162345639,61.31819725357957
C4:cap_degradation:+0.5,213.67814999959154,39.121814407094895,51.82943438230386,275.6719063081334,4.431089641504721,52.389210291011906,276.29660789371263,-4.63440097955265,53.70958318362685,271.7397992032961,-24.14912694505568,55.89609073458778,221.5557537567827,-76.30135493536758,59.49079861977583
R9:open,213.03493974189504,39.296772201168935,55.75388467588769,274.5805430021657,4.453188113400695,55.971992648171344,275.30369516041304,-4.637520334463644,59.44463425848289,271.43280774164316,-24.144552724393392,72.3990022529624,220.60648996437226,-76.53928204806442,89.89931081534098
R9:short,213.48391628983882,39.41694048927942,51.68670395688444,275.1853285316874,4.473043124133924,52.583851947004405,275.92188425589933,-4.595218168729286,53.827995843128534,271.7312950576471,-24.023985207975702,56.0314009447871,220.80765029851267,-76.54411722614246,60.35026962586096
R9:parametric:-0.5,213.62069075821128,39.15540359676022,52.313552552944756,275.04207757388696,4.41954641247372,52.746969072462846,275.78847218921027,-4.618626642028215,53.71168325706991,271.7087175237654,-24.063295180981125,57.348068157658254,221.1270003560544,-76.56284913561687,62.79124655278978
R9:parametric:-0.2,213.61359680868563,39.10444539094318,54.95476800542569,275.2536529804772,4.415235974733243,55.526604722922556,275.89673847087107,-4.609523035235437,55.60709835028068,272.1507429125601,-24.147513171313484,56.43134528469929,222.07122258256604,-76.44384079752831,60.21696838178326
R9:parametric:-0.1,213.36501907118836,39.2798738833212,50.42081580071812,274.96415676459236,4.4515282931595355,51.00413390595833,275.63950858236,-4.584023892242774,53.41752135661572,271.6561766415878,-24.05663058027009,56.466753797730654,221.75355518131278,-76.14059273086642,61.74713274150234
R9:parametric:-0.05,213.70868808958042,39.21590263340822,54.54271750212315,275.1597617896094,4.443216358420143,53.77520752012839,275.68220402740894,-4.6173195109637515,55.4645904329251,271.8586746519229,-24.20356992017926,55.16249826805384,221.01476576640266,-76.59886869065622,60.22215884066876
R9:parametric:+0.05,213.8559703723044,39.23795848790637,53.93594086308615,275.51798890837847,4.441896353376671,54.23066681381497,276.3245394576945,-4.626801798081807,55.637634284635716,271.6625117495431,-24.2104252686634,57.386161822619755,221.07424333872672,-76.53975128257039,61.47673911572183
R9:parametric:+0.1,212.83355836126853,39.47113005915942,52.454286154140355,275.20511574275906,4.474577503718266,53.91527256680067,275.89352987860195,-4.591585708361511,55.43336059617016,271.8469078526915,-24.011333181853978,58.18277934067019,221.98913391944382,-76.08890829546644,63.14794694827693
R9:parametric:+0.2,213.30851714570673,39.23109672690647,53.12622828121873,275.1873241746764,4.4389694586947686,53.64174878703969,275.76470368719504,-4.633689070002483,54.41815462522052,271.118482961776,-24.076301372924405,55.59524295679074,221.80313797711997,-76.24728062366279,59.33487149661737
R9:parametric:+0.5,213.2322448137244,39.27833038657069,52.715621801537225,274.87191979162196,4.447967430012071,52.70942271502658,275.41819844922156,-4.626441924814211,54.41520868445829,271.17518191016416,-24.005977341179758,55.66519187361648,221.44958416578953,-76.10990628977896,59.14542790171406
C5:open,1.0600301984741907,0.3734023077149897,53.135397028091134,1.0665163084708291,-0.4036961608782649,54.55599988143795,1.0643102986611608,-5.2230765128483325,53.83706773539699,1.0522187354899646,-24.34074634622788,55.726795315793524,0.8608332262810036,-76.35118812233472,60.74586650467179
C5:short,274.6140428747161,-0.02432430987475912,51.05800578354927,275.0743573836302,-0.24418632151403408,51.92066812120745,274.7201613042635,-4.8525565681002565,52.909595489590025,270.47209591717876,-24.25233172668751,55.22031731860668,218.87165813509526,-76.44413520101465,57.85799151352877
C5:parametric:-0.5,143.17086202429869,58.76001003501108,53.58019047370352,272.7718946448024,9.117987380002088,53.56861267969407,276.1213522057808,-4.346992962949464,53.94252855439034,272.3606284094171,-23.931736082708994,56.00867219806139,222.8673908907725,-76.12783310186339,61.250918431540185
C5:parametric:-0.2,192.79136119020114,45.737169399535276,54.52217580120565,274.8185764638309,5.633214889449787,54.672101592055355,276.09846168237516,-4.5538676336484505,55.37637503889815,271.96254309367407,-24.105274507162324,56.62871974645715,221.66124276286752,-76.43795761507083,60.03524441264287
C5:parametric:-0.1,204.08134611370062,42.31348697189635,54.85678394056968,274.9781696610421,4.987283450306046,54.82219445063812,275.8586951424876,-4.594250889771967,56.73156554821223,272.15816328764504,-23.9727733308733,56.86409684599762,222.87049233737582,-76.353215943753,60.62249461661977
C5:parametric:-0.05,209.5232584723892,40.630009989957145,52.2174506268843,275.29784277830544,4.670808082818115,52.568344113257204,276.21989209515726,-4.578589649589242,53.55452992199454,272.0688940304049,-23.97590195918659,56.24829868069681,222.1728206389538,-76.12785377770604,60.936892054978145
C5:parametric:+0.05,217.49360340919014,37.775675815614434,53.81657728425523,275.09429769028975,4.206107563290173,54.27572964791314,275.6705054845128,-4.642821224520956,54.653424789062356,271.37204080938966,-24.04596838879433,56.236582231207066,221.85820337267702,-76.51326117233367,62.03971171580322
C5:parametric:+0.1,221.49411530647748,36.40094374805756,54.746253496347485,275.1879079584655,3.9949519708035455,54.76192188489931,275.8815587598338,-4.622554256457549,55.06684265274473,271.5684096813113,-24.02161528528193,57.28199023887012,222.663357719988,-76.05914059914244,61.0543855949866
C5:parametric:+0.2,227.8311614865148,34.30944189777889,51.728013444486905,276.02662382413297,3.677024950884594,54.75729814669549,276.3536680221933,-4.610313161257927,55.07774300674092,272.22582189849953,-23.92313328703962,56.448159570150565,222.58467375430513,-75.93341078091146,61.32921056812216
C5:parametric:+0.5,242.05969762708602,28.587881814924586,53.66595924740038,275.704775273364,2.8840502957318925,55.00235757310871,275.80364515844815,-4.715811581984745,55.29109512536522,271.6599112175075,-24.131536197292455,55.15968609189895,221.61358558434642,-76.27443326884661,60.556967181655935
C5:cap_degradation:+0.2,192.06644979099252,45.84616434084525,52.24924034550658,274.4600685231564,5.63744673146544,52.4547683687654,275.65709812306034,-4.579608399186021,54.047479096694204,271.4755890278128,-24.089091871263467,55.96541618625784,221.44800889135593,-76.32591101238386,60.43835137372645
C5:cap_degradation:+0.5,144.05402701590072,58.471704065155066,51.43261176417843,272.49480399146023,9.027137353550657,51.84602555704215,275.91169541229317,-4.382746827446242,52.30477870988504,271.87790428514967,-23.987332900435945,55.25093386976434,221.95998300198403,-76.14203157923208,59.96558588534593
R10:open,276.4184360664633,0.15987806654006737,54.71069308115713,276.7869501234927,-0.22152216904054411,55.358677680876795,276.6227504423913,-4.860734596043839,56.74938464525901,272.7037802148985,-24.17233115818074,58.155961410067,221.60160219145914,-76.3094756728438,61.42921996206734
R10:short,0.026766631100624598,90.93037038012939,38.9398342174301,0.029399621523874993,93.81882659950395,40.17854641847069,0.03154901985800147,85.58051693051398,39.6325710364504,0.08764501028168009,69.10516947482014,48.654191182283746,0.2215867141587719,13.209659078729182,56.53148845665541
R10:parametric:-0.5,144.04364572548087,58.38504348722653,53.02420671456665,272.66958555812244,9.017596235743774,53.82769871677198,275.88204111208006,-4.421336802609948,53.487586154038084,271.67764077857976,-24.144703148102145,55.80794343205952,220.73589813876615,-76.14058220070177,60.04848817057665
R10:parametric:-0.2,192.62866457659203,45.582639417004046,52.69632061991375,274.7518718428885,5.600682491847713,53.14715018504468,276.0117276653724,-4.575274228432818,53.843604406501974,271.7125443573897,-24.042711345554494,55.339807614856014,221.74036379563512,-76.17940956237246,59.19660003036422
R10:parametric:-0.1,204.17683021455255,42.22398950877127,53.20665892608733,274.8710087659854,4.95106094743183,53.23006539078392,275.7592589778277,-4.6030829129981985,54.191762329229185,271.4390938053037,-24.033433564018868,56.651699085322434,221.95680608817165,-76.27725939247652,60.76525153264653
R10:parametric:-0.05,208.72003805073516,40.894073727547564,54.27710291374956,275.5730196879534,4.7132535659176575,55.16504303680344,276.37857077585744,-4.592107280730546,55.56816023319108,271.9072060823821,-24.069728806381285,56.55612741416058,221.76007287668236,-75.96803350027494,59.48085286449889
R10:parametric:+0.05,217.5704728770907,37.82025048190776,53.536547463851306,275.2803121478239,4.202113318050045,53.53943726055612,275.92806054143375,-4.663235233434478,53.819718484578146,271.2214699136897,-24.234907658707904,55.44782908129213,220.4548578346624,-76.66644661609553,59.507502936288226
R10:parametric:+0.1,221.40756511431343,36.55110212178123,53.31405847825489,275.839170924797,4.015974783722866,53.88843880561129,276.44720058693747,-4.636959851650879,55.392537522708835,272.3941917413435,-24.121048658721747,56.5891846092383,220.9637012303589,-76.21465285944706,59.90911486294828
R10:parametric:+0.2,227.86960961245364,34.211874153865445,51.67632938637631,275.7676066868496,3.656617226044723,53.03480807519969,276.158908046852,-4.600105380859883,53.70351509691726,272.2570718832496,-23.913718971018696,56.35231545852707,222.5606783376453,-75.88705191618622,60.19347650186706
R10:parametric:+0.5,241.7503124588721,28.643322059384342,54.781059020039976,275.84540957303443,2.9014605292254547,54.80097371123096,275.96960567278654,-4.647742652904567,55.626776200231234,271.7355181916241,-24.01883680564955,58.86613725362498,222.2079900378439,-76.12584429454797,62.20382435078285
R11:open,3.0974511377512313,39.20267476313187,54.82185238395475,3.999839546830409,4.316421614598167,55.268595421168996,4.000229687164903,-4.460607815897867,55.45163255602837,3.9447487770335705,-23.86722206205517,57.350277506639856,3.213325397170507,-75.90039807826987,62.52422905032665
R11:short,0.03148852051827171,39.208874079794015,40.86567052802611,0.03222873679780952,2.7580546183081975,40.422707890386576,0.031552279136458986,-18.015153099502598,39.656186940911596,0.028591234396323467,-10.459099743273208,38.09924985120426,0.03613949925001936,-78.7267542321328,41.51991531759993
R11:parametric:-0.5,423.7355597266496,39.274265270607934,52.320960159695844,545.7651173252822,4.449036029222899,52.681927441977635,547.4840375396267,-4.683741674885871,53.31887274728873,538.8030263390638,-24.338082334272954,54.88136602669572,438.8847687224489,-76.84253027639548,59.771872875354504
R11:parametric:-0.2,266.88438273657636,39.18044560931396,54.44419109063674,343.4680237376051,4.422008679953429,55.13850072880035,344.20072572363216,-4.641179083891402,56.09364689956831,338.83044554668356,-24.118543994872823,57.03905646514767,278.15243127117475,-76.24188200579694,61.80369276941781
R11:parametric:-0.1,237.11421636263645,39.12199287242339,55.021447340489985,305.50473888373864,4.428931735361594,55.53984192842745,306.3172008085048,-4.641206181494402,56.00809382479592,301.39576910087715,-24.09646506486979,56.900649994579545,246.80250022765523,-76.18755719574945,60.888619550164805
R11:parametric:-0.05,225.16744052479027,39.16378022221586,55.70136305745359,289.67015681420946,4.420478583374477,56.01873691890705,290.33662280843305,-4.653607582847873,56.854194489650524,286.29851742771655,-24.23123206422492,57.301535837681186,232.70027999470938,-76.66584674848131,59.41355623102422
R11:parametric:+0.05,203.40824418989735,39.292952855195466,55.02576071902723,262.34493367681125,4.455908783856245,54.551977851659856,262.9481439744706,-4.580049736315675,55.83693946254401,258.9355028643647,-23.876090611795227,57.01044500801831,212.99287823611388,-75.94723803014142,60.920547469951856
R11:parametric:+0.1,193.31410727892705,39.41732453155129,54.42638173581962,250.22135909080635,4.487412799018787,55.41553619519057,250.88637154849317,-4.629823823403167,55.34730011563398,247.22102787863838,-24.086018255111064,57.01149497283009,200.78283948983847,-76.19198854762405,62.162875614022454
R11:parametric:+0.2,177.73250079473604,39.29461992255729,52.63660805522167,229.90858762232446,4.4403712813287495,53.1054166213223,230.35494814133392,-4.6208192064655105,54.150533175284146,226.8781740879389,-24.034190388268385,54.939852457867715,185.2669353714213,-75.9813502223745,59.45478537404314
R11:parametric:+0.5,143.91217542041187,39.137985165246974,51.81962948593328,185.27773173738902,4.431752754203035,51.899393139691924,185.62840714728048,-4.573451520706139,53.16068124044023,182.86736359112695,-23.810392238883335,56.054873233550346,149.791683745675,-75.58481105037848,61.321919829088046
R12:open,0.028216099898881616,37.95805628418041,38.79012200197403,0.03703810714794943,-0.5322956495338902,41.18422468326609,0.03136350481035326,-6.407589619659003,37.963162725385615,0.03586860807425242,-1.0680264598465765,42.20876599152067,0.029183230249826487,-24.959808761409132,40.000212882286434
R12:short,3.093520359205031,39.28675492850969,52.8486386439924,3.995975413873087,4.41015486442409,53.629987066730315,4.010162997354822,-4.498043280982181,54.139858200029906,3.9368781677086213,-23.99818939191683,55.82209465464702,3.224160162018051,-76.29706791857362,60.11797858041486
R12:parametric:-0.5,108.14128128233185,39.055579041438435,54.225004549224856,139.55463164214538,4.4391409153450505,54.95195596985747,139.91867416297464,-4.534003602155851,56.59279093803165,137.94349557443041,-23.86735708408112,57.36721318306124,112.39698769150279,-75.83875269452258,60.270404538322026
R12:parametric:-0.2,170.9456450583317,39.352205745567844,52.54002793164812,220.76060768559353,4.457314221419444,53.104856149681694,221.28597218382188,-4.652411999631815,53.38832742301698,217.5052404085003,-24.27020895020441,55.904472075073095,176.48281157068203,-76.45002308628484,60.71946160852632
R12:parametric:-0.1,192.6878815180793,39.39191939118513,54.07928419797081,248.4971213352105,4.461222131999916,54.53419220838445,249.10521222541163,-4.5920160198487965,57.66493159463632,245.63118339251847,-24.039168302094904,57.43440502022608,199.75669381528033,-76.28211563498772,61.43580053429754
R12:parametric:-0.05,202.4704752281677,39.46841758094491,54.338412283018954,261.4634627569483,4.464597983868947,54.335285520549164,262.017303952314,-4.628740822504156,54.47319035511073,258.24378193611847,-24.120620930142692,55.61893420279242,210.85098364470667,-76.49315597832458,59.21607346494966
R12:parametric:+0.05,224.17458043962446,39.212719167661774,53.39575736296483,288.99328812168574,4.43463538380488,54.417318143503415,289.67860143053105,-4.650041938714208,54.79529537284736,284.9892260647495,-24.12547323311163,55.80825728624952,232.36304048665951,-76.28275283238551,59.47096342761651
R12:parametric:+0.1,234.608734273491,39.203302635397726,53.18503224164709,302.2188149611697,4.430944777451925,53.18080759979672,302.8604566966756,-4.622849853274636,55.07134492463267,298.2533797350468,-24.16479287107697,55.63844100432128,243.0664552984124,-76.63554094969649,58.99047784050178
R12:parametric:+0.2,255.29454351749146,39.60770263172484,51.760984419841556,329.58227113394275,4.481212533076172,52.96513537225178,330.59282632539623,-4.598997620921086,53.74186983310654,325.6033950452335,-24.010790597633843,55.34930874457,266.8953952678918,-76.14908253884563,59.446863354174376
R12:parametric:+0.5,318.5098344986561,39.24386113747076,54.07739229344207,411.38399861885694,4.457166353917286,54.34617308107409,412.3753790622645,-4.617476911075773,55.14850406571259,405.4666618602871,-24.138465566028188,55.72316034193391,331.2557499022934,-76.4667070561169,60.546899412170966
R13:open,10.885562418263063,-47.73748594902261,52.157333630213486,1.4056739576474369,-85.47221692712708,52.86086540075375,0.0641119214195772,-87.70250674575047,44.210489977039394,0.030535045676669002,-103.46043693543437,40.0201812769495,0.028412466709701954,-136.53783344866923,40.02966500682552
R13:short,213.9849774841652,39.19640023841602,55.252523307936244,275.1839209150602,4.53845040363079,55.45581274303538,275.6614577477152,-2.412345952149235,57.62901903739359,268.25379187177,-12.277033129507132,57.73361025326615,232.7931728211222,-32.674949140771204,61.10086388150364
R13:parametric:-0.5,213.40970388709758,39.27465376934621,53.258612488279226,275.1342920545893,4.507499716451525,53.82888532786593,275.7594269509391,-3.4897604467822534,54.4912377888336,271.3169038274985,-18.088227660360033,55.79487869917015,244.92266773230216,-55.002158415064784,59.961038106811
R13:parametric:-0.2,213.37584605911326,39.158797481022454,53.44464225362272,275.18301528540616,4.452424452972101,53.96974419646767,275.7711652379371,-4.150540555014034,54.92576912236697,272.0021842150517,-21.554920409755542,57.56778670481225,233.6255710272865,-67.9962654179762,61.642999885569274
R13:parametric:-0.1,213.74770530620108,39.20020614580435,51.53016672596286,275.7241774614954,4.450336891764208,52.16423358484437,276.4498881265668,-4.40718951730757,53.587250444644695,272.6209302852624,-23.004430720640304,56.05546481032049,227.60150966908265,-72.7189293527586,60.77320779734098
R13:parametric:-0.05,213.23295003911056,39.32764120452846,51.99010200475459,275.449656398666,4.473159032244838,53.565477394100746,276.2119905319588,-4.489752745548799,55.123135231136956,271.9830541888862,-23.466285979550698,57.65260070254534,224.76649328402902,-74.34686522931067,61.56274213823767
R13:parametric:+0.05,213.19023074657562,39.4201402174893,52.9679066861216,275.2442702167027,4.460842743947739,53.099858484867,275.8764511031767,-4.733712398691056,54.5292327895097,271.7341300906029,-24.66493448523471,56.49913427080003,218.2772826519045,-78.18774813598257,60.317610403692505
R13:parametric:+0.1,213.20432467447915,39.30466571469974,51.72166951511885,275.1114655134578,4.4686624073583,52.30251585267568,275.97376967097034,-4.798673548565975,53.434051703132724,271.66588026062993,-25.085957069496704,56.276440403618054,215.14311987474017,-79.71441913569404,60.79110081708126
R13:parametric:+0.2,212.9511819286878,39.49315838912513,53.30081729878695,275.9053238792528,4.459566932587631,54.47620461776802,276.54973386381243,-5.026772586256994,57.54151902566112,271.664605800932,-26.413499982478914,57.509360520983016,207.64621579409237,-83.12029684994764,60.763411356114496
R13:parametric:+0.5,213.7734070627173,39.16666227391349,52.793685701034775,275.6312515460876,4.383241487278154,53.00548633596222,276.2312723895242,-5.749707145933708,54.47456860630862,269.50836904621497,-29.989309930024557,56.071902435885065,184.71816274005602,-92.16284820200265,60.026146254186685
R14:open,10.902323284195933,-47.74432475808828,52.265781254058616,1.4124331972692734,-85.36398404383353,52.0208444004367,0.07168176924844238,-92.88016956329594,47.52334951918109,0.03353330409945939,-118.23127116911854,41.776227272882565,0.028443309736143525,-140.99903686515853,39.85607312567964
R14:short,213.69760536017407,39.3093159884473,55.890187922928845,275.1242607674412,4.556313211593637,55.90342024462338,275.6173615639037,-2.4094966718341198,55.98450101933376,268.44829902959407,-12.411621292832939,57.37305408433093,232.95144139722674,-32.75598932759498,62.296165068726324
R14:parametric:-0.5,212.60671611554406,39.401264951271486,52.76527143146771,274.9269122781718,4.507378043941621,52.99763861139098,275.50412499675537,-3.527481278754448,53.78846286311612,270.8451528937035,-18.11144254311713,55.527526955350666,243.02806331094592,-55.14102093528972,59.32872885766231
R14:parametric:-0.2,213.20315713499488,39.27385535658583,52.45206104954185,274.96683518079436,4.464945336201341,52.422468010427366,275.58723654851616,-4.191905453820453,53.37931128743084,271.5310338308256,-21.816961824054477,56.05199551430622,232.54059522898285,-68.56328015725668,59.342187591165406
R14:parametric:-0.1,212.97921562079435,39.30544115498884,53.96851175517379,275.37920643050535,4.460173306369743,54.78553500523966,276.1946064743932,-4.363222026087035,55.90533030459735,272.24622355268565,-22.750215667154336,58.027559527778266,229.19195965859782,-72.49751574609962,63.636910139070324
R14:parametric:-0.05,213.77649371485796,39.10189928777653,55.53325857199753,275.2067028371058,4.410597380468581,55.721219277233345,275.8938893416463,-4.470138062218057,58.062399360479404,272.10450821670634,-23.461198299521186,58.34567277685841,225.87046821008101,-74.09451660068959,63.496841962856436
R14:parametric:+0.05,214.22572451559077,39.25178300784144,55.18446367755078,275.7360336476323,4.4310022845612815,55.30325252765624,276.3994896749639,-4.740038769107467,55.157043449155594,271.882701621641,-24.737020165057576,56.239309443025334,218.11751753032667,-78.37208893350754,60.09246227870338
R14:parametric:+0.1,213.2773937962246,39.287617391834246,54.268212333136304,274.5844229218179,4.437640525836054,55.01191750527332,275.3479598368476,-4.850148938375903,55.31276026981806,270.99365452236964,-25.38762234130006,55.654709441105396,214.61186260874885,-80.1093295214028,58.466246438678475
R14:parametric:+0.2,213.0667077429759,39.31610266302838,52.26105884038516,274.9258187517262,4.438964621174168,52.636119380528136,275.63677511528584,-5.079994892957039,53.2247123993635,270.76445250354504,-26.47466611825883,55.22590171257727,206.8863233010949,-83.24003818901505,59.73375074447813
R14:parametric:+0.5,213.22299654072629,39.30872557999801,51.23463323488281,274.90413697506364,4.398105395414831,51.82361231238609,275.51370655604876,-5.701407701438401,54.94710294488418,268.68180459181895,-30.03020377620465,56.416770817325705,184.16834013468596,-92.06711958362277,61.94976115669065
C6:open,212.6105790038653,39.2263655910847,52.931542533571616,274.68076197734547,4.427871586121296,53.25421907260679,274.73200865238334,-4.634711058868168,53.81615740502446,254.5160550126339,-22.617820601327328,57.16365616036998,174.736064161973,-52.0803684233817,60.724574527328166
C6:short,1.0965398425504307,37.18068705157452,54.42935466080483,1.4010926770432004,3.6240100229535424,54.72785107487246,1.3400084835299135,-1.5341043659688327,54.57641237220277,1.3287791515149419,-2.42138619399444,55.40535465114458,1.3041249677789462,-3.3090541306502885,56.45782669819828
C6:parametric:-0.5,213.57691626057047,39.186913413473015,51.67423423980374,275.2571376902307,4.435120949417968,53.119985352379224,275.5604140153511,-4.615988918449771,54.233453493357054,262.9389188127142,-23.303105458130858,56.50163211456946,199.84371787470124,-62.80804587953674,59.503426687878076
C6:parametric:-0.2,212.92004433522152,39.41805454806293,54.03607920860151,274.7357618653246,4.469269143250208,54.029475084731786,275.29523841186676,-4.605931651133536,55.34917894865818,267.50256007396166,-23.68755784441846,57.28904545681257,214.6202954660254,-70.28081533516625,61.77589441106201
C6:parametric:-0.1,213.12777222974125,39.34847560455266,52.32312480745914,275.156564244328,4.445787420782175,52.70275905422982,275.7307905429233,-4.639577735803672,54.82450295408635,269.624711913384,-23.97409569461129,56.043685945615664,217.41055251455361,-73.4538154898089,60.75072532895437
C6:parametric:-0.05,213.86547717910491,39.168071378446484,56.36098722712029,275.1683789636041,4.418140639020716,56.5445273395289,275.8965445432618,-4.636939023867942,56.80582485535149,271.42452501428085,-23.967785633069994,57.1671078362602,219.84001869902164,-74.68164896824963,59.938116717929795
C6:parametric:+0.05,213.40093726689224,39.32642732339487,53.13934091814403,275.49314221500714,4.460396475757488,53.20088647711371,276.09602584980985,-4.632967328487453,53.617069799768274,272.8241593374371,-24.15065181845079,55.563999153106835,223.50062222637524,-77.99098571712526,60.548751696847646
C6:parametric:+0.1,213.99739008825367,39.12696588613956,52.46355311391245,275.2282560632676,4.437625659441876,52.84899450558453,276.06934348492575,-4.598645515570589,53.52719855079063,273.610460129063,-24.191188603595332,55.31602578340039,225.76765486235925,-79.14563405487036,58.84512237493635
C6:parametric:+0.2,213.52829106861935,39.24529894370254,54.384854593533234,275.48783202177447,4.4406473838603056,54.538510562476375,276.4164412046145,-4.582051541162155,55.16468172987062,275.87548467085446,-24.214798920870823,57.048127868472434,228.92138742584848,-82.21829931283486,60.92835285389474
C6:parametric:+0.5,213.136858387358,39.45639337345198,53.90709625523624,275.4589081357801,4.482485127939286,54.823832967668906,276.50031176411653,-4.620395241529753,56.62756806098557,281.18365325720913,-24.923527951265346,58.19516413434705,230.50673855190837,-91.90178951738484,60.859244623310786
C6:cap_degradation:+0.2,213.4396687782313,38.99244275171919,52.4634401364531,275.07666853103217,4.395232631253389,52.639484954359176,275.6531354758183,-4.606740864435638,53.187143503696376,268.3385652163532,-23.81017333529494,57.696717116252756,213.80794487585712,-70.83202719442232,61.75931533025566
C6:cap_degradation:+0.5,213.0335319407897,39.513864552958495,52.25045538087599,275.3730508486977,4.494230157734412,53.22508571240557,275.66910475255776,-4.606959943491472,54.66418018026893,262.8821654295506,-23.318436143625878,56.403433453573754,199.7315437430652,-62.83326494410782,60.018474418967344
C7:open,212.78321687169415,39.610782583087484,53.51954653265308,275.3795328993152,4.711440939745639,53.80077910075363,276.1506879784544,-0.16736475566478543,54.62461733670949,273.34708865177174,-1.4075902665592541,57.20012401340231,269.88361387759414,-2.467704219895256,61.3242036658224
C7:short,0.02768180277410319,134.2775851005132,40.543986701812,0.027207475494024025,96.04219146987433,39.035372336829006,0.05370071681647083,92.51782296393324,44.20949309983114,0.258416408741318,77.12841082746476,54.333335473011765,0.658484224372916,58.277088874515485,59.72757620254615
C7:parametric:-0.5,213.00026123671148,39.377621371366814,54.57169916478115,275.2740778857273,4.565344081519418,56.56552246380207,276.24937320826047,-2.3965371566516134,57.11923380323875,278.546793874022,-12.784667283684396,58.78399583108906,303.62440508098257,-43.74877415272875,61.962700911194204
C7:parametric:-0.2,213.83046235924684,39.23077446870771,55.35207799297239,274.9733018095868,4.480464635396438,55.54515766682528,275.79750836020605,-3.751384520871602,56.64052196377131,275.4912961492381,-19.598803067414504,56.48406714413191,257.01639319914915,-66.05568643284184,60.610556447965116
C7:parametric:-0.1,213.49029527415996,39.12987384422375,53.07491587528679,275.0895840872274,4.43676910948251,53.599624198825666,275.7714568259934,-4.195060549512538,53.967248338855114,273.7092684851294,-21.83924418201734,55.564296725632076,239.92695806886027,-71.32070677228998,59.61678793059406
C7:parametric:-0.05,213.0183027394258,39.353200216361984,53.08734659316224,275.6637967645216,4.481390531991842,53.19501509217084,276.31332464035813,-4.408854987164275,53.37110223387788,272.6991699558719,-23.053718465788954,56.027043437455234,229.45665402754136,-73.82902986500149,59.48278201144081
C7:parametric:+0.05,212.9641226103468,39.5657846240036,53.24830986156368,275.4424380936508,4.493366935875465,53.65525109078747,276.18533428454083,-4.844745311694208,53.986590480982485,270.48209061284155,-25.27395877820206,55.87547885478137,212.51828761015386,-78.68512836160214,60.52340194761644
C7:parametric:+0.1,213.495189020687,39.217301439031274,53.76086431408554,274.99539386957804,4.414526965698191,54.059592925188866,275.4409408972341,-5.081623540318708,54.06983550110206,268.9717871718541,-26.310345971407255,55.07631457286111,205.0800247811594,-80.49779130940736,58.97724457554935
C7:parametric:+0.2,212.74461159866772,39.51247362111905,53.48921475813061,275.2035444638211,4.43886046108103,53.33181279120032,275.62536626835623,-5.493069706941193,53.50540606828638,265.9899980856687,-28.337478291296062,54.43516904175389,190.36790978778555,-83.91812094451132,58.33841578230985
C7:parametric:+0.5,213.45083491712677,39.30456220155819,52.31550150239631,275.3818744471925,4.347659599164975,53.0364691028707,275.3012827780196,-6.806858682684055,54.80377192858739,256.7909425766088,-34.5350147788283,55.751256781988324,153.853508113943,-92.25547433713879,60.30228133454063
C7:cap_degradation:+0.2,212.830821080301,39.34426536504594,54.78103080746267,274.4903787913056,4.517011413327225,55.02404519487627,275.58598978963187,-3.723328826965,55.41830916923817,275.0386040528816,-19.533245677323613,57.336895799819885,257.34928749188106,-65.40268414000951,61.068447867161055
C7:cap_degradation:+0.5,213.4626371014341,38.97621190120358,53.58791623332948,274.5137543802398,4.514346922227389,53.688403115155886,275.53735585818026,-2.410090008898602,54.55375726829246,278.0027032744805,-12.585525373850476,56.9196881780876,303.8345184895493,-43.31100351235178,62.30132886032994
R15:open,0.043327421504699294,9.007224418036223,41.955612600609044,0.04092025152972948,0.9062785725556499,42.22355917521683,0.048040136349222516,0.38380969456918024,43.306047078431845,0.04455175166908698,-23.146755185632234,42.19405012144067,0.042833388586593586,-0.9774571521006266,41.75054239950942
R15:short,0.038788439077774926,17.876211534200117,43.28110167545866,0.03512098540475152,-23.712933023819538,42.16776465413253,0.039835683207065764,-3.973816613683654,42.03704757418219,0.03810515504015063,-22.525873377504926,43.474617689461724,0.041087654704947164,-23.16542405518203,41.49671416141395
R15:parametric:-0.5,213.46146216256562,39.38485314673804,53.4664690009821,275.91026524877594,4.466800291749648,54.29160107217211,276.50915380148336,-4.601413450184072,56.43455758312581,272.530406913979,-23.985694367547264,57.10630318532458,223.10359077663307,-76.15487522785646,60.78977986636269
R15:parametric:-0.2,212.52471473472193,39.370003310370414,52.840720205353186,274.9819778108231,4.455113924287033,53.52924594478676,275.60036966116394,-4.594532630017765,54.51490922296716,271.7393819650944,-24.034263933500743,56.12249590817936,222.23824203827107,-76.46744821437645,61.67659126392784
R15:parametric:-0.1,213.25058425418968,39.1446574125341,54.702881281754934,275.0133672939935,4.418531842782288,54.83658644462597,275.7806597580841,-4.6810644805051815,55.76212072172818,271.14462383364526,-24.428582210765633,54.901787490309545,220.15020964822673,-76.46935975067848,59.326935334894685
R15:parametric:-0.05,213.2398638893018,39.38885581452073,52.614069115400866,274.91390212938666,4.4514084030822225,53.24508664574181,275.6205602876315,-4.627137225909283,54.18946804395584,271.2147396127851,-24.286225603116982,55.94584132474546,220.45865208002965,-76.64907858236481,60.80514266284425
R15:parametric:+0.05,213.11818935226023,39.51461428978765,54.11397032048505,275.09407499613314,4.48206140664757,54.6612877640725,275.80231435895814,-4.632646989868476,55.654278288801095,271.8332224344168,-24.067386655915783,55.753887725091616,221.04756591016553,-76.03982642330473,60.16473449956183
R15:parametric:+0.1,213.54570765626957,39.132847898179776,54.27368087951285,275.47542811973017,4.422515295748207,54.4650812975963,276.22299839539204,-4.6246301712674684,54.835375988250775,271.79107747826356,-24.021261689150926,57.590279051124924,222.07705237805106,-76.19699381494098,64.2067899150179
R15:parametric:+0.2,212.92732897049112,39.47788905317023,52.125029909068566,275.27342736811323,4.481374318705698,52.86981708466965,276.03855274486904,-4.634371216281849,53.43538087096693,271.638770652829,-24.10933517017821,55.46151794176648,221.31146312095075,-76.53567341830069,59.21701765782611
R15:parametric:+0.5,213.16759289492836,39.35894623261175,52.11821214940641,275.4183033774821,4.456432495457862,52.2964468153248,275.9922537961133,-4.617365990625371,53.029001312406166,271.9379112880454,-24.094239069265132,55.512508913937296,221.64728668110652,-76.33559418492862,59.42244815345279
R16:open,0.03737744305835753,25.965828774433323,44.070060354509636,0.04711665923699351,-1.2649981333924885,46.12145751176108,0.0334255548236346,-4.334787095713595,43.01407636501001,0.044549249760292745,-22.92651314814868,42.496769565927536,0.049277333300886295,23.284397888947034,44.44502042686761
R16:short,0.04205056888054268,32.06663101358427,44.04886039716891,0.0462073655076481,-12.035047832791792,43.18097761811542,0.04708523685673744,-4.5427754170595716,42.76427521545736,0.03863747343789335,-23.007602677838086,42.12621585200018,0.04322580358393748,-45.13621768036984,44.855733612093076
R16:parametric:-0.5,213.89871599143453,39.1244332906564,53.9194138226202,274.8244214655492,4.427714619399889,54.251341481760115,275.80071801440596,-4.650065169532401,55.727055965807786,271.7612827007551,-24.104410438856817,56.74775824973224,220.40979752898673,-76.3526523544855,60.64410760031006
R16:parametric:-0.2,212.8502898750898,39.42888397130352,55.17673538187409,275.4930637552203,4.479709085120668,55.17864575324211,276.2069586364859,-4.6241842538690765,56.17482931060003,271.9590069588383,-24.09521951453767,57.3928575630587,221.47031191916597,-76.25427982508083,60.37913138670545
R16:parametric:-0.1,213.94725673274584,39.17723391989065,53.360684494228,275.21466004868904,4.420743667743169,53.91069904285424,275.9404320947285,-4.632326384937326,53.92508441571372,271.52971284942214,-24.140512419811273,55.095738667542086,221.55500335947588,-76.0946626044889,59.43602080267809
R16:parametric:-0.05,213.25926214814484,39.2340886066998,52.23888535535038,274.7385537043208,4.44350625083271,53.21393001012858,275.55176601081246,-4.647029563820608,54.733894484537956,271.57707698398406,-24.041678486004926,56.312941321325496,221.05317712808528,-76.13819872523938,60.79776812787823
R16:parametric:+0.05,213.03786087638105,39.2772636191652,52.82997081778959,275.3065970928716,4.457879000402619,52.83565831487827,275.89994690193976,-4.667250987351608,53.632061690668195,271.4482176785475,-24.271113778367464,56.13805070126958,220.82684515788986,-76.51959752997351,59.85977808598474
R16:parametric:+0.1,213.83180827901242,39.104216315087314,51.164391921763254,275.38790016719514,4.422670735849837,51.92029777847664,276.1283072174252,-4.585143706262488,54.44097595222558,272.25900619596865,-24.014537496669725,57.19836433800653,221.87380854107187,-76.11013203135934,61.17569793259658
R16:parametric:+0.2,214.1125201983852,39.10540147962284,53.83624362875444,275.34677828308793,4.4170079244295035,54.32999625196189,275.9960532598708,-4.6160084692729395,54.40959645334189,271.7722200545719,-24.055007083373635,55.86934987218054,222.52408285990157,-76.14967886217474,61.11803181371481
R16:parametric:+0.5,213.49503529069128,39.27863481874677,53.187070201128236,275.0863227486804,4.452190899309071,53.40358007373848,275.701396732877,-4.611965632965236,54.12391605370573,271.6180676291565,-24.057278978333898,57.43297904140588,221.15814291055278,-76.28041991004798,61.636987564017744
C8:open,213.26749199748085,39.32376584693224,53.01471390353649,275.42441175636895,4.452112388572469,53.235466445932936,275.92027678903855,-4.660798140318908,53.21908114365466,271.4751426034866,-24.166929132603485,55.39905456598311,221.26361960194714,-76.26243510086763,59.78662079930807
C8:short,0.04049660882049272,36.98498467670041,41.920204861558815,0.041576570359625205,-13.020439256933784,41.484268296179074,0.039099144379507705,-3.66747700769049,40.59015438363712,0.04537260190999459,-19.96958525821679,41.84153920511668,0.04710632672017044,-30.15098443216624,43.93430615260832
C8:parametric:-0.5,213.06502503362003,39.42676169318962,57.31576326164428,275.2007996995599,4.47084388185199,57.76044970636032,276.014399849739,-4.537429288314135,58.098039470385125,272.6771301966017,-23.834311064061396,58.84705111418276,222.76608501341417,-75.82313181043435,63.40241995640679
C8:parametric:-0.2,213.5382158862718,39.15269501334256,53.48492209311977,274.9411821778446,4.42216870373054,53.808636779745626,275.63770110928454,-4.611243504209488,54.64784741154734,271.73291321993867,-24.149915871898543,56.31657858600893,221.01031802274548,-76.18171367679469,60.480379769662534
C8:parametric:-0.1,213.54759038680123,39.18026876883931,54.0601514971967,275.22405373224495,4.429948817410311,54.050275547634705,275.8701259668544,-4.638399693671735,55.00194239060651,271.53025082969754,-24.188568204890995,56.79789609103018,221.1273095575181,-76.26201060372593,61.447365688951756
C8:parametric:-0.05,213.31256388855738,39.38853370209889,53.14151438773052,275.54659961522844,4.450641451531307,53.7393500691463,276.338829009237,-4.584578493641652,54.75957449835609,272.14354361624476,-24.134607187565436,56.78523619643915,221.82051742149295,-76.43749158414944,60.92548063647601
C8:parametric:+0.05,212.90230401398597,39.313305962485316,52.1814367209122,275.0137022053601,4.458839200786094,52.78732034248995,275.6675042517446,-4.61450948478642,54.262885152753256,271.7941838158517,-24.059975495310596,55.644406991790845,221.12010454993103,-76.45741030847141,60.392878269305484
C8:parametric:+0.1,213.85708348898402,39.04907077023781,53.68425526413779,275.05552512871645,4.412749292481923,54.40708104580888,276.0067929927154,-4.567079843752716,55.939446297411195,272.2164263027936,-24.011560087108766,56.82133070977858,222.48528035575575,-75.97910302515453,60.60309036781284
C8:parametric:+0.2,213.845854954942,39.095869528280296,53.481309765127484,275.3373408711712,4.39769591434802,54.311540578411474,276.17033301998856,-4.6216874977763025,53.861461081753134,271.77315202201095,-24.116216558188253,55.77957163794114,221.12678652644055,-76.16104533731396,59.05168729862133
C8:parametric:+0.5,213.3185889677766,39.14463879313346,53.72852356739227,275.43291198495155,4.4310381204012295,53.7348119810827,276.0188618151389,-4.631739914630628,54.85287949967544,271.45924259703065,-24.21370720696244,55.79692302879278,220.5154759988597,-76.33569991471873,60.40288012830869
C8:cap_degradation:+0.2,212.68405296891063,39.36001127990488,50.9056619966755,274.97000300553094,4.4748940527247285,51.99392709186129,275.7552087778838,-4.616650602986061,54.16509361642709,272.0777335226951,-24.069190321311833,57.0134812435548,220.707996512548,-76.20384535501938,61.66376564467687
C8:cap_degradation:+0.5,213.22390206668788,39.316609784809,53.19386300220749,275.7084082754916,4.464006840517072,53.201127435751175,276.40596160117815,-4.604844028671225,53.775579292536236,271.7873880683208,-24.05375859385438,55.4461655831064,221.8841700650206,-76.01762502466767,61.455743035519845
U2:opamp_vos:+0.02,213.84556973955327,39.0416675199297,53.37027999697519,274.9536518067688,4.405369436094121,53.4212720039705,275.50084013811426,-4.673756689605697,53.45925043361187,271.0734297106625,-24.26279735320209,54.81688487081016,219.79270405086245,-76.51766804349204,58.4463344128583
U2:opamp_vos:+0.05,213.3469571760734,39.31106961045972,54.23999349313921,275.45426569462177,4.451075520747832,55.12609226039583,276.2715590720864,-4.608326533827686,55.002757541780916,272.2285264959869,-24.061968705447786,56.2164006148887,221.6101712069192,-75.99636057201023,60.596578607487494
U2:opamp_aol:+0.01,213.26221593445888,39.27067294094221,53.52440650415811,275.1706888861037,4.44723843188103,54.52382535668104,275.9705374369542,-4.603134989885842,55.3491367706453,271.8729047817541,-24.011799775068358,56.96700475152884,220.75989843077198,-76.14454056752095,61.458917647953434
U2:opamp_aol:+0.001,214.10250905834405,39.039266736165686,54.54531685089944,275.2951872445501,4.404080643357849,55.81519135432529,275.98115609282297,-4.654197297640878,55.89423398263523,271.908256236221,-24.157845740154883,56.180822115841835,221.16770656111433,-76.50975089514442,58.34863969462644
U3:opamp_vos:+0.02,213.2165055746171,39.23453001771,52.133860270475935,275.0988173503322,4.454926680336946,52.50109444754054,275.8209787468061,-4.604807571429996,53.28390072425607,271.96480289199735,-24.000707183859184,54.945467883062165,222.49928898254888,-76.03286759681279,59.23488776698082
U3:opamp_vos:+0.05,213.71973640337416,39.22620513918207,55.75009195677339,275.3698360760578,4.438946726866877,57.10399975153079,276.0618327919789,-4.603187619658064,57.22273996935948,271.91936398062006,-24.067227767195575,57.805815102852776,222.49447959774045,-76.1940037467796,60.86309355717158
U3:opamp_aol:+0.01,213.02563839716265,39.23149064608789,52.21696445830104,274.73000830666194,4.444777335083556,52.281843711673275,275.4627457349659,-4.638642684496217,53.301061793968515,271.3756054908878,-24.04342286792761,55.13430031503438,221.32060856572292,-75.92024902460207,59.93439044803352
U3:opamp_aol:+0.001,213.62588309917209,39.26348060624602,53.6871775796122,275.3952545975478,4.454193590024396,53.993968473387596,276.1047309806023,-4.642014922114399,55.58360383343713,271.79171965567093,-24.27950714630495,56.399513774569115,220.95041791107025,-76.52244045150567,59.92682789688013
U4:opamp_vos:+0.02,213.009272992146,39.40319426696291,53.003626214658524,275.4445182599793,4.46944168317032,53.50174033568635,276.2402939672426,-4.640977378522994,55.045768510606194,271.92075330230705,-24.01060975630113,56.95366198430928,222.0999837165612,-76.15806943792289,61.76298085785143
U4:opamp_vos:+0.05,0.027860602800481533,39.167263082458504,37.95618749537414,0.033505427271776404,1.2152037438943384,40.48928397442865,0.0280307742226159,-12.494716473599212,38.112260617232224,0.029688072495843723,-29.542875434503163,39.5327855070187,0.02931329451807889,-79.53935123485806,37.720905099570956
U4:opamp_aol:+0.01,211.85729929159004,39.19385150927129,52.67026955043542,273.1684142164124,4.427984131577262,53.72870664134183,273.7890066809658,-4.656671385501136,54.15869281252731,269.2325009042351,-24.221109557825297,56.651360055568524,218.93251461171917,-76.53945525855593,61.063478778217316
U4:opamp_aol:+0.001,198.91318803916624,39.15323831654318,51.46796347973375,257.4342584760641,4.435120095648049,51.89402842943588,258.066902952167,-4.598898903960325,53.13397700344601,253.55633225822888,-24.137952876634653,56.76119372499278,206.40675243036245,-76.42387817101412,61.710339791733794
U5:opamp_vos:+0.02,213.10141943241328,39.21738940803279,52.37016950020721,275.2215031544143,4.4223522986180095,53.46511859105909,275.90768422948463,-4.634759172094328,54.41958088096467,271.8213442767307,-24.153825262550892,55.76747255912334,221.68157563221848,-76.39305897785593,60.22975877345288
U5:opamp_vos:+0.05,213.01204526188923,39.282784912172225,53.77834593832109,275.2992426473809,4.439724031583473,55.006480498617485,276.00580400939236,-4.62941876577214,54.928385891252425,271.833418693464,-24.096665119561514,57.34219377498337,222.36683342503017,-76.25192069896865,61.660975826460444
U5:opamp_aol:+0.01,213.76958976790073,39.12341226995762,53.907653063821726,275.1801574531047,4.416744701573723,54.667669394574794,276.20491629143993,-4.593514674151583,56.48144493834898,272.50843064832236,-24.016638262446065,57.05695515457582,221.842437010897,-76.6296716416864,60.818277560244226
U5:opamp_aol:+0.001,213.3130750431746,39.11734839918706,54.32208282878402,274.80609826311,4.432887184263824,54.32348766636239,275.3854670688562,-4.63912296131046,54.68760759820603,271.31746282594094,-24.029310160994346,56.46581395635205,221.68422365097177,-75.81388770694902,60.71677753531762
U6:opamp_vos:+0.02,213.51948245657013,39.19215622719044,54.32418246284612,275.18782300635655,4.429660263947876,55.65121976412236,275.79136161449935,-4.669988351440223,55.58242718610819,271.3064091893021,-24.307426370628065,56.81354051994688,219.51373488011558,-76.80155084384762,60.73248490085042
U6:opamp_vos:+0.05,212.55500960652066,39.29783312221385,51.59397773818028,275.1373836755201,4.461626360914933,53.129476666095016,275.853504437469,-4.621370978038165,54.075690599742465,271.61514329501415,-24.20674566321644,57.190771399825366,221.6907348957143,-76.2960646177048,61.00555052414042
U6:opamp_aol:+0.01,214.16892443911448,39.035363882166024,53.625618738080675,275.65741885158286,4.401143563978824,55.217710440749656,276.2243766265972,-4.665506936254941,54.394569303060756,271.4799240098695,-24.194674271454026,56.21662050297882,220.82478000690068,-76.47846379825516,60.784157296373344
U6:opamp_aol:+0.001,213.20209350109485,39.25511191294994,51.34958366013098,275.35798722357737,4.455686470169496,51.60947806387664,276.0881938428381,-4.6490756167176714,52.30061182514896,271.59556073668796,-24.16301709346842,54.70618534716794,221.57753724864565,-76.47528794067287,58.50995811677505
U1:ina_vos:+0.005,214.17214592787963,39.155070775463436,55.153506415583074,275.7984690030897,4.453077047378827,55.15459004973452,276.294074194427,-4.554332267237719,56.6131886382505,272.8180475132088,-23.923744565088178,57.003115133475845,223.04819254092124,-75.8568341471036,59.81173942532844
U1:ina_vos:+0.02,213.9536868377781,39.29216204805497,54.569828624208625,275.6174965205909,4.434017077400126,55.93192434722479,276.15077054316026,-4.611193426342273,56.82511672799181,272.24870332182667,-24.032781761524614,58.028631495173535,221.66808254504647,-75.84647802361134,60.99974685337251
U1:ina_cmrr:+70,213.3803772370309,39.32756849624155,52.48049057618295,275.43059035332794,4.449653882501479,53.10430769151466,276.17582400950477,-4.648069494978466,53.22353628002246,271.8001046917986,-24.225948984383248,55.16840388771401,220.01295059323587,-76.4496738177136,58.77916419707874
U1:ina_cmrr:+50,213.4866452212582,39.24675347768202,49.27245028559271,275.7647430184171,4.427760896031481,49.731836842517524,276.4209513372564,-4.599032515371717,49.906606439924346,272.2267614890072,-24.237326118002432,49.95840139566923,221.25938199102586,-76.3881275696511,49.959505927669305
U1:ina_gain:-0.05,205.67168214543207,39.16594594824131,54.02696653209186,264.86382887026144,4.423750458315882,54.91520010750775,265.6572176465653,-4.644179164138177,55.9294591511922,261.80051999520794,-24.187985879480113,56.814342920174255,212.70078305920882,-76.60525254159619,60.161246871245524
U1:ina_gain:-0.2,181.42236652428775,39.23575023641286,55.30346728860167,233.72372701039225,4.43297866181711,55.67444544532215,234.35027419454988,-4.5649387671829835,56.74187991246323,231.1461570348902,-23.885755112742814,57.99437309003571,189.75160188540644,-76.29808515655381,62.31072802859582
la:electrode_off,4.215025264452852,38.940706309546485,-11.853692984750552,5.431423432491268,0.7283878400808503,-9.651241057235408,3.3284343349407615,-56.54261334256002,-13.904821298014,0.83398255647823,-104.59544620797507,-25.92649791970863,0.22642742294475474,-161.35803938441688,-37.251037467820524
ra:electrode_off,4.636478682434318,39.03393327596252,-11.0260527273388,5.953070582664919,2.3455960484584306,-8.854762740769946,4.130907022648808,-25.827996757183588,-12.028767736157278,2.6608428909954203,-18.047093003569877,-15.84942755164431,2.8358269148366544,-37.761584594326635,-15.29594257183039
rl:electrode_off,213.2442530366343,39.22908778050129,53.5096251225683,275.2147194919159,4.444226935003738,54.631435522588625,275.8574121851825,-4.629984514718352,58.23050057685424,271.6454677294998,-24.11510220794539,71.27595348068905,221.97087966347596,-76.26890062818896,89.53087001531095
la:electrode_high_z:+5,211.2716745286846,39.34066711813548,33.027856801008504,272.41498860114905,4.409565585795725,33.78531705136827,272.4461073028269,-5.181609732180223,34.22028315596257,262.2322727664638,-25.64764253264778,37.40375087692406,207.88675546907857,-77.22693563465661,41.08249984306173
la:electrode_high_z:+20,202.55238145538254,39.43152984227466,21.78931130078915,263.06052898442783,4.319574466694785,24.051496847827053,261.82876525142456,-7.096994121516239,24.01384570120633,234.87745423064507,-30.116334725119977,23.291638063498773,168.84384166221727,-79.28228889151723,26.624985775972718
ra:electrode_high_z:+5,211.00296912605998,39.3600799027446,33.580212621007085,272.5160364766228,4.423257714543319,33.60173218250985,272.82758083524624,-5.151101287659447,34.894194886024856,262.76862762028765,-25.467006214239664,36.66167518762532,209.364223464061,-76.9380152797169,39.919967114349525
ra:electrode_high_z:+20,204.01394416505383,39.341316568794745,21.899703417982774,262.9376270215023,4.314634767186983,24.05166746961601,261.67645364068153,-7.187710522181372,24.0057785759873,232.32293270982584,-30.849330883458748,23.188600298312117,169.02461017283917,-80.38751004237226,26.32118659871098
rl:electrode_high_z:+5,212.59650790906358,39.446432856301996,52.228843683696766,275.5624095766963,4.469004897054648,53.68485913182452,276.17223049768495,-4.585512807886458,55.502195320792474,271.9124594215863,-23.952910950418033,56.8856705121996,221.97890235981612,-76.23511149012386,61.01274663085705
rl:electrode_high_z:+20,213.4888989506926,39.28110377083769,52.51855315002472,274.8904535908803,4.443380776674755,52.757428537735024,275.7704346555716,-4.613893685698738,53.42849726218205,271.9110526927648,-24.14064031085034,55.8402136402881,220.90490210247793,-76.5914490519266,59.63328445071074
la+ra:electrode_high_z:+5,208.79163380353305,39.362028478704865,38.95226643075301,270.0383545886091,4.403185669646184,39.42989545105939,269.90414211755996,-5.7957974120256335,39.98320676030755,253.34606801150093,-26.96590610589888,42.24862260759612,195.77192807839242,-77.6840025478757,45.50937939687374
la+ra:electrode_high_z:+20,194.01092861903052,39.29083511441026,29.215559368462706,250.5108522638562,4.177335764109649,29.857273114459417,245.32144547480885,-9.840450658645779,27.822352971207188,196.87483234343455,-36.664922568057676,27.92342542061723,132.19820361951906,-83.65936659880579,31.881728218949515
