,R1,R2,R3,R4,C1,C2,C3,R5,R6,R7,R8,C4,R9,C5,R10,R11,R12,R13,R14,C6,C7,R15,R16,C8
dc_out,-3.62742755654235e-13,2.6285706931466302e-14,-3.8902846258570127e-13,3.62742755654235e-13,0.0,0.0,0.0,-3.62742755654235e-13,0.0,7.517712182399363e-13,-3.62742755654235e-13,0.0,3.62742755654235e-13,0.0,-2.1004382694796093e-10,5.3127154190875455e-05,-5.3121847054074575e-05,-1.577142415887978e-14,-5.257141386293261e-15,0.0,0.0,-0.39063702103951875,0.3906370210397816,0.0
dc_ina_out,-3.795375985191998e-09,3.787787372293706e-09,2.3450099845491526e-08,-2.345673351549154e-08,0.0,0.0,0.0,-2.8068954923295982e-11,-1.197498394436828e-11,8.721811804244839e-13,-7.512217466429861e-13,0.0,-8.747276948198839e-12,0.0,-6.366285988499883e-15,5.729657389649894e-14,-6.366285988499883e-15,0.0,0.0,0.0,0.0,-0.47308526081670166,0.47308526081668256,0.0
dc_rld_out,1.0437807257103934e-09,1.0732681136786347e-09,-3.950319793975543e-08,-3.9503547419909125e-08,0.0,0.0,0.0,-1.491115322443419e-11,0.0,-4.5622012964078915e-09,4.573821511518339e-09,0.0,4.313396181819366e-08,0.0,3.349184806269398e-13,-3.101636364066877e-12,3.349184806269398e-13,0.0,0.0,0.0,0.0,-1.0820961890740057,1.082096189075389,0.0
acd_mag_0.05,-0.000211504325695402,-0.00021107914094223984,0.001311456257545571,0.001308819722546643,-2.5725919008725774e-10,-2.829170906816918e-10,-1.0804600927239784e-08,-0.1598534071069491,-0.1598550942232591,1.695716002337178e-09,-1.6958853427876966e-09,2.822340841979328e-15,-3.6690430945731265e-14,0.17001416814029943,0.17001416809743655,-0.4190539910511803,0.4190121123056543,-1.0329485247560142e-09,-1.0408934142261861e-09,3.123359015651054e-08,-3.330598987932249e-08,0.0,0.0,0.0
acd_ph_0.05,-2.0887899738691246e-06,-2.0685615431475836e-06,-1.2284683157948006e-06,-1.3502081446908222e-06,-6.177708068306337e-07,-6.165285683987234e-07,-2.4685987461097765e-05,1.3815986732086803e-07,1.3823982056112606e-07,7.983463287004223e-11,5.139653480466245e-14,7.98939365640476e-11,1.1860738801075952e-14,-0.3123396057986967,-0.3123396057086381,2.1693890036798388e-06,-2.1676013728956388e-06,-0.00012419551602250005,-0.0001241952756369532,-2.586313167166618e-10,-0.00024839057588098583,-1.1860738801075952e-14,-1.1860738801075952e-14,0.0
acc_mag_0.05,-0.0007111940097109111,0.0007111851615165914,0.0006561869011861004,-0.0007661921024052021,-1.1365841549533613e-09,1.1400183354334349e-09,3.1363084189735626e-12,-2.673661486726942e-06,-2.673687423735303e-06,-2.59924088923272e-10,2.5901224012884994e-10,-1.937114915195768e-12,-1.4614748672673068e-10,2.8436348194689725e-06,2.843634820719731e-06,-7.009041917672755e-06,7.008341458206489e-06,-1.7277283331982898e-14,-1.740994771941908e-14,5.224088800926289e-13,-5.586464909842964e-13,7.766544556598624e-16,7.766544556598624e-16,9.219814425761988e-16
acd_mag_0.5,-0.0002465266309229453,-0.000246031484984493,0.0015285096641914884,0.0015254305238637344,-2.9994408554747786e-08,-3.2968970071064125e-08,-1.2592674497815744e-06,-0.18631912837756084,-0.18632109481676343,1.9766366479300964e-09,-1.9767235849836817e-09,1.3807649687107905e-13,-2.5569721642792414e-14,0.0032805573516999976,0.0032805573564713077,-0.4884335949613439,0.4883847826687258,-1.2042214337397376e-07,-1.2134787469027375e-07,3.6404437530924313e-06,-3.882047312268785e-06,0.0,0.0,0.0
acd_ph_0.5,-8.751439637248479e-05,-8.666693622028436e-05,-5.146650362305317e-05,-5.6566463290796284e-05,-2.5881654978847223e-05,-2.5829497136177435e-05,-0.0010342230422404472,5.7885256565382586e-06,5.791868081236281e-06,3.3449631954831333e-09,2.128528049924488e-12,3.347097935190791e-09,3.851227794610455e-13,-0.21661754862509522,-0.21661754846662962,9.08947847617599e-05,-9.081988664473006e-05,-0.005203488856410879,-0.005203478762407017,-8.651975387871602e-08,-0.01040688289036117,0.0,0.0,0.0
acc_mag_0.5,-0.000802108116483998,0.0008020981270533198,0.0007400613697843771,-0.0008641264817578564,-1.2853908700884457e-07,1.2854126127212877e-07,1.2543860522263908e-12,-3.0154713709248912e-06,-3.01550296484021e-06,-2.9609841158266637e-10,2.9244077973939787e-10,3.4872370277120446e-13,-1.6066928100436663e-10,5.309455105474965e-08,5.309455086615545e-08,-7.905111611607488e-06,7.904321602875708e-06,-1.94898660983022e-12,-1.9639692216277544e-12,5.891919982367545e-11,-6.282957024757641e-11,-4.862206431510941e-16,-4.862206431510941e-16,-8.748653203789511e-16
acd_mag_10,-0.00034610432682490814,-0.0003456628313498875,0.002087608823215888,0.0020800056838539234,-1.6302912962100915e-05,-1.7928201841421176e-05,-0.0006846222929373013,-0.2594465316327889,-0.25944926977509486,2.832792398991881e-09,-2.755110407417294e-09,7.80016997894084e-11,-8.703168070136195e-12,1.1495121915100698e-05,1.149512985807368e-05,-0.6801360743718428,0.680068104316642,-7.299498497679036e-05,-7.350839580237326e-05,0.002021158413336138,-0.0021675668922769412,-2.841850798411819e-14,-2.841850798411819e-14,0.0
acd_ph_10,-0.0012622593269598205,-0.001250022239105664,-0.0007250378742960812,-0.0007972704690115222,-0.0003664413142882613,-0.00036510605219558273,-0.014630947316316279,8.355830921061622e-05,8.360654618044321e-05,4.832559066800385e-08,3.468824669641799e-11,4.836027443127689e-08,4.661265841459985e-12,-0.007869237102908386,-0.007869235691568551,0.0013120822176625221,-0.0013110010511644121,-0.07531808598479484,-0.07531780876578427,-0.00044139044313787996,-0.1501945088919643,0.0,0.0,0.0
acc_mag_10,-0.0019334540190483675,0.0019334269348957789,0.0017763744808554551,-0.0020731422001224326,-0.00010961531193180782,0.00010961525366908163,-5.2336277279989255e-14,-7.298897502076597e-06,-7.2989745905559326e-06,-6.391083118900065e-10,7.071092584332495e-10,6.779368611643353e-11,-1.7411021455078453e-10,3.2331612015287814e-10,3.233313370374899e-10,-1.9134177229133184e-05,1.9132265032238258e-05,-2.053558426553035e-09,-2.0680019121370334e-09,5.6860984397193605e-08,-6.097987825736114e-08,8.604842674990767e-16,8.604842674990767e-16,4.0986424978949154e-15
acd_mag_50,-0.00038634012054138215,-0.0003917689696452953,0.001456198603914543,0.0013983406730121739,-0.00025365513386032754,-0.00028187440993827174,-0.010710590198882168,-0.2553492412431786,-0.25535193407157786,5.625891152440639e-09,-2.7474954362956013e-09,2.8786094192575477e-09,-2.1630316704550175e-10,4.526008674442832e-07,4.5260928022347906e-07,-0.6693899216205121,0.6693230323846443,-0.0052616221542633014,-0.005272916053462534,0.045758023058013575,-0.05628896993417919,2.8493748334661845e-14,2.8493748334661845e-14,0.0
acd_ph_50,-0.002317034163497301,-0.002294104047811496,-0.0008518536651216091,-0.0009465587089989287,-0.0004825696506554088,-0.00046338288731004014,-0.018919051336560057,0.00015526276397124253,0.00015535214195089587,9.095401496259147e-08,9.665503358833994e-11,9.10506544457136e-08,3.443539671453854e-11,-0.0005848939903749697,-0.0005848913718586195,0.002438111769911758,-0.002436102823360466,-0.14830195549547173,-0.14829568685974576,-0.020297614620342148,-0.2762994493114918,2.2214951754427805e-15,2.2214951754427805e-15,0.0
acc_mag_50,-0.0053536521417422754,0.0053534518841106314,0.004613097861014865,-0.005325391327154781,-0.00271832591387667,0.0027182695519740695,1.667758279497602e-13,-2.1856016133610617e-05,-2.1856246920677277e-05,6.4501441631939596e-09,2.0031435449064047e-09,8.453083373626607e-09,1.4907128531766868e-08,3.8552176437628893e-11,3.8558189193561984e-11,-5.729559266905835e-05,5.7289867340618374e-05,-4.503620072864468e-07,-4.5132870371942406e-07,3.916601046244226e-06,-4.817984335822967e-06,1.0903031339515803e-14,1.0903031339515803e-14,1.9547335896191205e-15
acd_mag_150,-0.0002757830727117802,-0.0003040770333092056,0.00035475988296764297,0.0002853655130009831,-0.0002878495901321965,-0.00034311061502148734,-0.012619205848883529,-0.13393172579771095,-0.1339331301592938,2.1245389784776232e-08,-1.4500115748473442e-09,1.9795329821907613e-08,-9.90051173953878e-10,2.6383421131579425e-08,2.6390285318025913e-08,-0.35107569562658225,0.3510406442430943,-0.11042443569595928,-0.11042827080148154,0.053860385124686924,-0.2747059349592038,0.0,0.0,0.0
acd_ph_150,-0.003289117724816795,-0.003253818356649197,-0.0002954720578742913,-0.0003521494919356254,-0.00032338335357046913,-0.00026008443167861755,-0.011669362106609408,0.00022400842967939462,0.0002241365272812393,1.3197600497708615e-07,2.0313192332793933e-10,1.3217914117372687e-07,4.013709035148144e-10,-9.376316004146226e-05,-9.375938233894572e-05,0.0035228294414325744,-0.0035199306629204513,-0.2258546657906459,-0.22580607199365707,-0.17978615869914072,-0.2718920572460666,0.0,0.0,0.0
acc_mag_150,-0.00659877225540113,0.0065980697847725185,0.006093778703382958,-0.006700529456851755,-0.006747711459625261,0.0067477977215391095,-1.619922081714565e-14,-3.585079805323502e-05,-3.585117316791287e-05,1.8720235015573358e-07,3.3721192104910505e-09,1.9057449055519878e-07,2.338835144382088e-07,6.710287227678227e-12,6.755759402768748e-12,-9.397892347687237e-05,9.39695406347156e-05,-2.9559353984120773e-05,-2.9560380595086247e-05,1.4417806909145695e-05,-7.35356257229818e-05,1.8346536919990332e-14,1.8346536919990332e-14,-1.1154903608901462e-14
zlo_mag_10,0.0007506091228785131,0.0007506091189817901,2.818607774838869e-05,2.8186076019010562e-05,-2.3150180038402554e-07,-2.315163823656867e-07,-9.260363576129426e-06,-0.0035093360078062657,-0.003509373044575346,0.0,0.0,0.0,0.0,1.5548577667038873e-07,1.5548588285036535e-07,-0.009199683653496257,0.00919876427422754,-9.873476733570537e-07,-9.94292191838464e-07,2.733867341649529e-05,-2.9319029615064183e-05,0.0,0.0,0.0
zlo_mag_100,0.003900948651800478,0.0039009493349381847,4.6484823837471364e-05,4.6484751997457385e-05,-2.749201530018914e-05,-2.749447326803814e-05,-0.0010997297049518994,-0.013983431534590305,-0.013983578677332282,6.8696025863424825e-15,0.0,0.0,0.0,6.19594874791798e-09,6.196503659149121e-09,-0.03665628964013181,0.036652627905943515,-0.0032303392348420642,-0.0032318408560760847,0.0069795628328527875,-0.013440548910539609,0.0,0.0,0.0
pulse_baseline,4.101255753512634e-08,-1.6555993200219292e-09,4.440135113597918e-08,1.8577679813145038e-08,5.990706459387612e-08,1.4796720070818282e-08,8.716777565887917e-09,1.3093275345615727e-09,-4.8491270820530796e-08,1.9001946235254533e-08,-1.574343644050686e-08,-4.0662241661230736e-08,1.6003283584426393e-09,-1.1572503514934411e-08,3.424286393126371e-08,5.310448033462733e-05,-5.3138817501021296e-05,7.337512018191904e-09,1.5839784612447313e-10,5.697221334626426e-10,-8.803386268670917e-11,-0.39076710765217343,0.3907671901407021,3.0394821754502565e-10
pulse_peak,-0.00018189237553594567,-0.0001513683117615797,0.0013991054050898019,0.0013373041536990993,0.0005152650002528231,-6.951499851808146e-05,-0.009986775585496592,-0.24352082755671675,-0.24320853078788662,-0.0006964536683424054,-1.7846695728495764e-07,-0.0006966648129549708,6.762706909203718e-06,0.0004149850188620066,0.00041509810305715095,-0.6382545569028035,0.6381878915438413,-0.0023455913940735682,-0.002153287659261644,0.08003920673619354,-0.08451359426859227,0.000102577494045297,-0.00010237553043853604,-2.051130285792044e-09
pulse_end,-0.00023938611733526026,-0.00023970431113545953,0.0014990475657185478,0.0014955657366150332,1.5806336316687565e-06,6.767423533498073e-07,1.55227043160234e-05,-0.18251802151543586,-0.18252093105719353,3.3603668269897187e-07,-3.201238340302906e-07,-8.159241000185921e-07,-3.163008413685862e-09,0.024597642498175393,0.02459851046164456,-0.47847091906652334,0.4784223079848614,7.734963658226643e-05,7.71804669051978e-05,-3.391923458718585e-08,0.00015440022918675975,8.325677180770728e-07,8.22555087961161e-07,1.084963877067953e-08
pulse_undershoot,0.0017959257911326122,0.004085687694333773,0.001004263561657163,0.0006255170552688904,0.006798880396212986,0.003130863910067765,0.01677644604736765,0.014794164176505595,0.01972647472844899,-0.0065293890753669506,-2.4333969910046045e-06,-0.005998251575845524,0.0003865960841196031,0.029890599404386826,0.029891377288927438,0.04437031369034865,-0.04433335897130536,0.011729975304233975,0.014499528063262419,-0.08612055073751795,0.11263763200138559,0.0016016795523280684,-0.0016026893581877534,-8.170648833012818e-08
pulse_tail,6.460707519406292e-05,5.118327861747009e-05,-0.0003043179499213343,-0.00031302777729423864,2.03375043486846e-05,4.572817032298178e-06,-4.6618234463796673e-07,0.03890756125886759,0.03889156041438192,5.324253952089014e-06,-5.416460717646629e-06,-1.3562275276972481e-05,-1.5943631530036305e-07,0.08235381557978731,0.08236848730199153,0.10198380422912676,-0.10198678541672038,-1.357885431640268e-05,-1.6449837802467624e-05,1.415131342148754e-08,-3.289128856262834e-05,1.4120134623771788e-05,1.3827807324544728e-05,-9.171378438251166e-08
pulse_rise_time,0.0,0.0,0.0,0.0,0.0,0.0,0.0,0.0,0.0,0.0,0.0,0.0,0.0,0.0,0.0,0.0,0.0,0.0,0.0,0.0,0.0,0.0,0.0,0.0
pulse_area,-0.0002916444224782307,-0.0002906463576492367,0.001674667475515965,0.001668958901383316,1.8187201718603146e-05,-8.138272791581625e-07,-0.00031585556805908304,-0.2059790984392995,-0.20597025897741847,-2.3293951441075094e-05,-2.1905226683744078e-07,-2.4073636051264167e-05,1.0633720494541035e-06,0.013796295837152858,0.013796871222985958,-0.5399441930305401,0.5398896416151397,-0.0016853778747568954,-0.0016786445212600702,-7.628122195289884e-06,-0.003356284938350739,3.836847470392628e-06,-2.7333381516108215e-06,9.09914951928242e-09
